108426,98355
108458,98317
108450,98348
108445,98337
108463,98347
108472,98337
108494,98364
108503,98377
108514,98387
108510,98353
108522,98363
108533,98383
108544,98378
108540,98392
108566,98397
108602,98415
108613,98420
108627,98426
108666,98423
108701,98464
108723,98447
108733,98457
108763,98464
108793,98521
108792,98483
108852,98491
108843,98514
108889,98512
108872,98546
108883,98521
108910,98526
108939,98537
108908,98538
108908,98521
108941,98532
108938,98554
108953,98526
108949,98522
108921,98540
108950,98530
108940,98536
108943,98521
108933,98513
108909,98541
108942,98514
108939,98518
108949,98544
108938,98522
108905,98539
108958,98524
108953,98514
108960,98541
108945,98537
108980,98564
108979,98553
108997,98557
109015,98556
109046,98569
109031,98580
109009,98568
109057,98598
109093,98587
109106,98581
109100,98587
109159,98613
109142,98602
109220,98640
109185,98640
109196,98634
109219,98667
109241,98650
109265,98662
109263,98687
109286,98636
109328,98698
109345,98706
109328,98680
109362,98704
109376,98720
109392,98744
109412,98743
109414,98713
109443,98731
109472,98753
109463,98751
109495,98747
109511,98743
109525,98767
109527,98778
109551,98803
109564,98789
109577,98771
109579,98807
109603,98824
109605,98821
109647,98805
109655,98823
109620,98826
109674,98858
109682,98833
109695,98859
109699,98864
109729,98859
109709,98838
109767,98861
109776,98879
109757,98873
109811,98882
109818,98886
109818,98901
109830,98903
109855,98911
109847,98903
109889,98920
109930,98932
109891,98933
109893,98943
109921,98931
109953,98951
109942,98959
109956,98963
109974,98947
109988,98974
110019,98984
110000,98986
110026,99005
110050,98976
110047,99001
110049,98999
110046,99013
110021,98984
110002,98974
109928,98964
109905,98941
109844,98924
109775,98889
109701,98836
109652,98818
109606,98819
109525,98784
109449,98748
109373,98704
109312,98667
109208,98637
109162,98604
109100,98611
109022,98581
108947,98533
108924,98500
108887,98505
108864,98477
108807,98463
108767,98461
108773,98450
108766,98474
108748,98453
108702,98447
108700,98470
108703,98448
108707,98458
108711,98447
108723,98465
108747,98469
108700,98492
108701,98449
108725,98496
108755,98470
108754,98486
108765,98496
108768,98487
108804,98463
108777,98475
108777,98521
108796,98493
108788,98508
108789,98495
108788,98527
108815,98516
108837,98525
108854,98551
108848,98512
108855,98550
108881,98534
108928,98553
108915,98552
108918,98559
108965,98575
109020,98601
109040,98594
109041,98578
109059,98619
109060,98631
109095,98607
109101,98628
109118,98636
109110,98649
109120,98661
109120,98670
109156,98640
109135,98657
109141,98670
109169,98655
109124,98633
109141,98653
109127,98653
109126,98631
109127,98650
109159,98624
109116,98644
109097,98641
109151,98641
109127,98639
109139,98642
109097,98633
109129,98616
109140,98633
109101,98632
109142,98646
109147,98636
109129,98648
109165,98624
109110,98658
109149,98646
109163,98652
109145,98643
109191,98662
109174,98661
109193,98653
109199,98644
109194,98680
109249,98684
109232,98675
109268,98675
109280,98690
109280,98727
109305,98696
109327,98706
109292,98715
109324,98708
109355,98713
109369,98750
109361,98740
109416,98748
109413,98753
109426,98756
109440,98784
109448,98772
109475,98765
109484,98786
109494,98769
109520,98798
109519,98802
109535,98796
109519,98785
109571,98821
109560,98807
109587,98824
109609,98847
109586,98819
109617,98854
109644,98836
109663,98831
109630,98833
109690,98845
109719,98896
109688,98880
109686,98882
109734,98871
109709,98878
109732,98905
109726,98853
109767,98880
109775,98894
109778,98902
109789,98884
109814,98912
109789,98905
109833,98911
109825,98920
109827,98905
109864,98929
109835,98941
109866,98934
109878,98946
109908,98941
109915,98970
109923,98943
109918,98986
109946,98941
109958,98988
109965,98979
109983,98970
109941,98976
109974,98977
109984,99016
110011,98981
110000,98997
110010,99009
110035,99006
110011,98983
110021,98991
110006,98986
109968,98983
109964,98966
109924,98958
109865,98936
109829,98891
109744,98884
109687,98855
109605,98813
109520,98785
109453,98758
109385,98709
109298,98663
109232,98681
109142,98621
109034,98597
108989,98560
108883,98516
108839,98516
108750,98470
108694,98430
108680,98406
108597,98398
108575,98368
108500,98378
108516,98359
108479,98369
108461,98350
108441,98341
108393,98323
108404,98342
108388,98330
108395,98329
108371,98334
108378,98326
108381,98353
108354,98324
108335,98319
108370,98355
108376,98326
108349,98352
108357,98332
108360,98333
108331,98335
108368,98345
108354,98334
108368,98331
108354,98378
108354,98331
108345,98354
108377,98335
108376,98373
108345,98351
108378,98338
108379,98362
108375,98365
108419,98346
108438,98383
108464,98397
108478,98416
108478,98409
108506,98408
108534,98452
108533,98445
108577,98439
108590,98428
108582,98450
108609,98475
108581,98478
108594,98487
108619,98454
108667,98486
108660,98465
108649,98470
108669,98475
108665,98466
108673,98488
108691,98484
108681,98492
108678,98475
108681,98481
108688,98467
108636,98469
108674,98484
108688,98472
108660,98484
108686,98465
108654,98492
108667,98460
108673,98484
108671,98478
108707,98488
108670,98473
108724,98488
108702,98487
108731,98523
108756,98526
108767,98517
108754,98524
108786,98527
108791,98521
108812,98542
108801,98559
108850,98546
108847,98565
108866,98563
108889,98585
108921,98584
108914,98599
108944,98590
108964,98594
108966,98616
109007,98607
109021,98611
108993,98624
109071,98658
109071,98677
109070,98646
109101,98674
109109,98668
109157,98668
109136,98702
109184,98683
109179,98695
109216,98716
109211,98711
109230,98724
109259,98728
109251,98752
109298,98733
109310,98730
109316,98758
109352,98750
109338,98773
109375,98775
109366,98789
109401,98810
109412,98794
109446,98827
109447,98824
109433,98839
109496,98807
109477,98842
109491,98827
109520,98855
109511,98834
109526,98837
109554,98837
109548,98871
109564,98877
109583,98869
109566,98875
109614,98857
109616,98870
109599,98897
109649,98894
109636,98891
109658,98900
109676,98912
109712,98922
109707,98930
109722,98936
109724,98923
109758,98927
109768,98921
109766,98948
109759,98971
109797,98970
109802,98966
109834,98977
109845,98980
109868,98971
109882,99011
109877,98995
109911,98997
109936,99034
109922,99027
109960,99037
109965,99048
109955,99032
109959,99058
109952,99036
109957,99032
109950,99030
109890,99003
109886,98997
109828,98963
109738,98945
109693,98907
109591,98916
109523,98820
109455,98803
109370,98802
109293,98749
109195,98716
109128,98671
109072,98640
108953,98628
108864,98584
108769,98554
108700,98526
108670,98489
108591,98469
108523,98437
108481,98424
108403,98401
108356,98373
108324,98368
108318,98377
108296,98392
108282,98352
108218,98353
108225,98377
108222,98361
108207,98348
108191,98319
108183,98336
108190,98365
108171,98327
108204,98363
108154,98350
108159,98348
108175,98346
108152,98324
108158,98335
108138,98353
108172,98346
108156,98356
108151,98338
108143,98350
108121,98337
108145,98366
108141,98340
108159,98350
108148,98352
108180,98376
108153,98368
108188,98366
108224,98378
108232,98414
108266,98420
108305,98408
108307,98443
108288,98437
108354,98442
108375,98455
108408,98446
108421,98459
108420,98486
108427,98480
108454,98477
108449,98470
108441,98492
108431,98488
108446,98490
108436,98463
108450,98499
108461,98468
108442,98451
108441,98483
108430,98496
108415,98464
108458,98478
108437,98489
108408,98471
108433,98459
108436,98492
108440,98484
108389,98456
108424,98474
108435,98455
108449,98472
108439,98501
108433,98483
108438,98483
108457,98487
108434,98501
108458,98494
108484,98499
108493,98504
108483,98512
108495,98502
108496,98523
108540,98531
108539,98515
108546,98565
108556,98569
108583,98540
108606,98544
108617,98555
108638,98578
108661,98578
108673,98583
108678,98557
108703,98585
108726,98611
108746,98587
108729,98611
108749,98629
108774,98617
108763,98631
108816,98650
108832,98658
108850,98670
108854,98684
108853,98660
108878,98682
108914,98675
108897,98697
108943,98711
108923,98712
108915,98710
108972,98705
109012,98754
109035,98738
109016,98731
109050,98745
109054,98772
109074,98748
109100,98753
109135,98756
109094,98785
109107,98772
109142,98773
109149,98789
109156,98799
109158,98805
109183,98811
109179,98822
109206,98807
109221,98822
109230,98823
109245,98816
109255,98844
109270,98870
109274,98858
109292,98849
109325,98835
109322,98853
109338,98858
109344,98863
109394,98904
109386,98881
109399,98875
109417,98869
109437,98886
109436,98901
109480,98919
109496,98944
109454,98913
109501,98925
109511,98953
109525,98962
109525,98974
109567,98963
109553,98959
109571,98965
109574,98976
109606,98991
109594,98981
109592,98994
109588,98962
109547,98946
109494,98921
109444,98924
109413,98881
109311,98873
109267,98814
109143,98781
109100,98761
109020,98746
108922,98701
108834,98647
108702,98620
108629,98559
108533,98547
108421,98510
108372,98467
108267,98447
108164,98409
108087,98364
108031,98368
107947,98321
107891,98293
107838,98284
107760,98253
107777,98254
107725,98239
107703,98213
107688,98234
107649,98218
107643,98222
107621,98213
107582,98229
107601,98214
107587,98219
107618,98196
107590,98226
107616,98219
107625,98233
107591,98210
107635,98234
107623,98232
107634,98229
107595,98223
107640,98230
107623,98229
107656,98253
107658,98245
107643,98247
107649,98215
107665,98237
107694,98249
107671,98258
107700,98273
107702,98271
107725,98277
107749,98283
107788,98296
107815,98348
107861,98317
107874,98340
107922,98343
107936,98365
107933,98363
107976,98360
107968,98412
108021,98410
108012,98385
108045,98410
108044,98410
108050,98409
108076,98418
108069,98417
108076,98396
108072,98429
108061,98435
108064,98424
108068,98398
108105,98427
108093,98420
108060,98394
108098,98405
108045,98415
108078,98405
108053,98442
108073,98435
108056,98408
108051,98431
108077,98419
108074,98435
108067,98438
108096,98420
108111,98453
108106,98439
108104,98445
108092,98458
108126,98446
108137,98459
108161,98451
108165,98449
108184,98460
108169,98474
108224,98492
108215,98500
108243,98501
108276,98516
108304,98507
108304,98514
108280,98530
108320,98519
108377,98526
108311,98553
108409,98572
108413,98556
108406,98580
108446,98579
108451,98610
108488,98588
108485,98615
108526,98629
108519,98642
108572,98633
108573,98650
108605,98653
108602,98661
108645,98676
108639,98691
108662,98693
108659,98680
108712,98699
108762,98700
108746,98744
108786,98727
108800,98733
108812,98775
108825,98768
108856,98739
108854,98762
108853,98766
108880,98785
108912,98797
108911,98766
108925,98808
108933,98798
108944,98804
108952,98813
108987,98834
108987,98823
108982,98830
109003,98814
109014,98833
109050,98860
109024,98854
109072,98855
109062,98852
109074,98871
109101,98857
109126,98851
109110,98878
109127,98880
109132,98901
109136,98897
109151,98883
109190,98897
109169,98911
109186,98916
109192,98909
109225,98917
109230,98928
109261,98929
109282,98957
109268,98948
109319,98943
109330,98958
109329,98977
109341,98946
109374,98976
109388,98988
109427,99012
109443,99003
109433,99024
109469,99040
109485,99059
109518,99055
109512,99085
109557,99085
109516,99069
109591,99085
109597,99089
109616,99070
109636,99094
109622,99113
109635,99098
109650,99100
109629,99110
109670,99116
109644,99105
109601,99098
109593,99095
109513,99053
109496,99012
109417,99009
109335,98979
109296,98940
109167,98918
109107,98888
109019,98849
108941,98798
108846,98766
108769,98739
108675,98703
108576,98652
108486,98619
108425,98580
108323,98569
108274,98528
108187,98533
108123,98491
108094,98464
108043,98454
107988,98432
107939,98425
107920,98424
107898,98400
107881,98403
107884,98385
107854,98378
107883,98397
107854,98397
107855,98381
107842,98395
107871,98405
107869,98414
107869,98393
107916,98438
107914,98421
107911,98426
107945,98443
107954,98453
107978,98429
107973,98467
107992,98462
107989,98452
108028,98490
108059,98486
108069,98497
108068,98453
108117,98483
108135,98491
108186,98529
108175,98540
108232,98541
108276,98594
108268,98591
108336,98577
108361,98594
108383,98593
108393,98618
108408,98617
108447,98640
108451,98639
108476,98625
108468,98650
108506,98656
108503,98666
108501,98632
108500,98640
108518,98652
108487,98647
108524,98648
108512,98653
108481,98653
108502,98640
108497,98628
108485,98639
108524,98660
108493,98642
108479,98660
108459,98642
108461,98621
108475,98656
108471,98639
108473,98634
108454,98626
108504,98634
108486,98657
108480,98649
108479,98644
108513,98644
108523,98656
108528,98660
108531,98656
108543,98699
108571,98661
108568,98673
108571,98681
108599,98704
108598,98685
108619,98725
108637,98722
108659,98729
108658,98732
108688,98725
108713,98741
108752,98749
108761,98750
108771,98778
108784,98779
108793,98776
108857,98799
108828,98816
108856,98784
108891,98845
108905,98818
108916,98832
108930,98822
108971,98825
108969,98861
109012,98860
109021,98860
109031,98868
109054,98873
109071,98896
109088,98901
109117,98901
109102,98902
109130,98888
109154,98896
109212,98944
109208,98956
109188,98939
109214,98951
109268,98961
109283,98960
109305,98985
109252,98983
109277,98988
109333,98980
109312,99016
109344,99002
109348,98996
109384,99003
109398,98995
109381,99036
109381,99011
109429,99037
109433,99047
109457,99053
109473,99048
109500,99051
109491,99062
109533,99090
109488,99080
109561,99088
109583,99099
109587,99094
109608,99124
109607,99114
109639,99113
109661,99120
109633,99129
109681,99125
109711,99162
109691,99154
109741,99151
109733,99168
109738,99166
109740,99190
109802,99171
109804,99196
109811,99193
109819,99199
109800,99192
109832,99207
109801,99166
109739,99180
109706,99128
109661,99121
109588,99096
109516,99050
109486,99043
109349,99006
109266,98946
109182,98919
109052,98884
108975,98818
108872,98796
108790,98779
108686,98713
108591,98662
108518,98652
108412,98601
108333,98536
108215,98526
108166,98520
108085,98474
108024,98477
107965,98426
107920,98418
107871,98386
107846,98378
107807,98364
107786,98371
107763,98343
107746,98318
107743,98349
107729,98352
107747,98380
107741,98374
107744,98372
107775,98337
107762,98354
107769,98367
107749,98365
107779,98373
107789,98368
107803,98388
107800,98386
107808,98393
107817,98385
107836,98395
107832,98391
107837,98415
107840,98388
107856,98423
107854,98398
107888,98426
107927,98397
107908,98418
107939,98410
107988,98451
108005,98433
108024,98465
108076,98480
108082,98487
108118,98504
108124,98529
108139,98542
108195,98523
108232,98524
108200,98524
108263,98544
108253,98549
108263,98560
108288,98533
108285,98568
108288,98570
108318,98560
108294,98568
108282,98544
108304,98559
108281,98575
108296,98549
108305,98553
108271,98568
108284,98532
108284,98556
108277,98565
108281,98555
108279,98561
108271,98556
108315,98573
108270,98556
108299,98536
108294,98560
108313,98544
108321,98561
108295,98561
108340,98549
108309,98560
108329,98566
108334,98561
108369,98588
108335,98568
108397,98588
108373,98595
108410,98594
108429,98624
108412,98621
108444,98623
108478,98635
108480,98613
108511,98635
108522,98635
108539,98666
108530,98654
108557,98685
108604,98662
108594,98670
108613,98710
108643,98696
108693,98699
108669,98721
108695,98709
108725,98737
108755,98759
108757,98758
108795,98759
108797,98745
108826,98749
108833,98785
108866,98785
108871,98799
108880,98830
108945,98791
108917,98815
108953,98819
108974,98810
108995,98852
109006,98848
109031,98852
109048,98855
109064,98857
109052,98880
109101,98887
109084,98871
109128,98879
109153,98891
109125,98908
109133,98911
109174,98908
109168,98904
109217,98917
109186,98924
109260,98944
109236,98930
109262,98952
109288,98946
109313,98946
109317,98969
109298,98991
109321,98982
109340,99006
109362,98980
109370,99017
109402,98999
109382,99032
109381,99022
109430,99035
109440,99044
109494,99041
109507,99034
109541,99061
109534,99074
109518,99069
109536,99071
109567,99085
109594,99061
109599,99108
109627,99093
109657,99108
109670,99138
109663,99127
109700,99144
109673,99140
109681,99108
109659,99122
109652,99100
109597,99072
109549,99052
109491,99046
109399,99022
109330,98942
109202,98934
109147,98871
109049,98857
108895,98785
108832,98744
108697,98722
108593,98667
108493,98617
108375,98560
108281,98527
108155,98496
108068,98442
107962,98412
107887,98398
107812,98354
107782,98329
107711,98308
107641,98287
107590,98268
107552,98252
107524,98241
107507,98211
107453,98241
107425,98221
107455,98179
107432,98193
107422,98212
107443,98192
107445,98221
107425,98199
107439,98212
107448,98213
107434,98230
107469,98209
107477,98226
107495,98227
107470,98225
107508,98247
107506,98231
107499,98212
107528,98251
107513,98238
107537,98234
107567,98258
107562,98258
107550,98263
107603,98267
107601,98267
107652,98283
107681,98316
107695,98324
107726,98337
107758,98310
107818,98338
107822,98354
107889,98393
107905,98400
107942,98420
107995,98423
108014,98443
108054,98443
108072,98454
108102,98452
108101,98478
108161,98500
108178,98485
108218,98494
108189,98514
108209,98490
108245,98498
108243,98512
108262,98510
108284,98536
108261,98529
108296,98522
108254,98523
108289,98521
108288,98537
108309,98547
108308,98549
108326,98547
108312,98545
108327,98529
108323,98533
108338,98576
108372,98576
108338,98553
108395,98570
108383,98580
108413,98587
108389,98586
108452,98597
108470,98612
108462,98606
108485,98623
108514,98625
108556,98638
108571,98665
108620,98689
108607,98716
108636,98692
108652,98685
108692,98714
108734,98715
108734,98702
108765,98733
108802,98747
108838,98779
108821,98756
108871,98775
108928,98775
108953,98834
108952,98826
108986,98853
109000,98825
109063,98801
109100,98839
109130,98882
109160,98932
109196,98915
109194,98913
109266,98936
109253,98973
109274,98967
109331,98942
109377,98979
109377,98999
109427,99032
109423,99025
109485,99021
109498,99049
109543,99060
109576,99095
109594,99113
109664,99087
109648,99122
109684,99134
109712,99125
109755,99142
109789,99182
109800,99171
109859,99196
109840,99210
109883,99208
109931,99222
109926,99236
109981,99240
109989,99254
110035,99243
110050,99267
110101,99282
110125,99329
110112,99321
110152,99341
110174,99352
110225,99374
110246,99363
110274,99370
110294,99408
110328,99393
110367,99405
110366,99422
110416,99407
110445,99464
110430,99442
110467,99492
110510,99469
110570,99508
110547,99511
110610,99526
110603,99538
110667,99543
110684,99543
110686,99561
110738,99591
110776,99578
110804,99595
110776,99625
110841,99630
110850,99631
110830,99619
110854,99627
110814,99618
110813,99592
110731,99566
110678,99558
110574,99509
110506,99466
110412,99406
110324,99377
110230,99372
110078,99289
110014,99270
109897,99213
109790,99185
109696,99146
109585,99095
109468,99042
109388,98985
109294,98972
109195,98934
109087,98913
109020,98848
108931,98834
108882,98816
108813,98783
108753,98768
108736,98750
108723,98772
108696,98749
108668,98717
108624,98719
108617,98726
108621,98708
108641,98720
108652,98716
108644,98736
108623,98731
108656,98709
108650,98736
108645,98740
108678,98749
108700,98741
108720,98731
108713,98763
108707,98746
108702,98764
108725,98775
108723,98763
108752,98760
108758,98769
108767,98778
108759,98797
108776,98780
108794,98818
108811,98789
108818,98802
108838,98805
108882,98836
108910,98822
108966,98869
108965,98855
109008,98867
109035,98887
109093,98914
109121,98921
109136,98940
109186,98979
109227,98955
109245,98951
109270,98976
109298,98995
109286,98992
109342,98997
109361,98996
109327,99018
109386,99008
109387,99034
109386,99045
109395,99039
109401,99032
109409,99042
109389,99014
109424,99027
109433,99045
109415,99054
109427,99031
109423,99036
109418,99041
109435,99030
109422,99023
109429,99016
109478,99045
109445,99053
109462,99031
109478,99072
109459,99050
109490,99051
109513,99067
109524,99075
109539,99092
109548,99072
109566,99115
109595,99108
109620,99110
109622,99128
109669,99131
109658,99133
109697,99150
109661,99150
109728,99180
109762,99189
109774,99184
109772,99184
109817,99215
109837,99215
109862,99192
109879,99195
109937,99232
109907,99240
109931,99240
109959,99245
110007,99290
109995,99270
110051,99300
110044,99297
110083,99322
110103,99330
110132,99323
110150,99342
110151,99366
110189,99368
110232,99375
110281,99376
110264,99404
110244,99382
110328,99412
110368,99393
110347,99416
110393,99450
110406,99459
110416,99430
110453,99473
110444,99466
110500,99441
110510,99494
110511,99506
110504,99491
110545,99503
110582,99516
110551,99528
110601,99564
110610,99529
110634,99552
110639,99562
110672,99546
110708,99577
110698,99573
110719,99572
110716,99570
110740,99557
110789,99601
110774,99588
110794,99598
110805,99615
110856,99633
110835,99608
110869,99630
110915,99639
110897,99648
110911,99656
110899,99643
110964,99694
110927,99677
110969,99696
110956,99676
111008,99685
111027,99707
111041,99742
111072,99699
111083,99719
111096,99718
111068,99728
111120,99724
111112,99733
111145,99747
111173,99740
111181,99753
111208,99784
111212,99779
111251,99795
111279,99803
111266,99829
111296,99801
111312,99826
111331,99831
111362,99821
111409,99853
111382,99840
111399,99866
111452,99863
111434,99876
111475,99881
111499,99884
111490,99896
111512,99902
111518,99906
111514,99898
111487,99904
111456,99893
111436,99850
111355,99829
111271,99797
111180,99745
111060,99714
110963,99629
110833,99611
110720,99543
110607,99510
110448,99449
110353,99375
110230,99331
110094,99278
109962,99247
109840,99191
109709,99129
109601,99107
109472,99042
109399,99002
109264,98952
109184,98920
109069,98888
109030,98864
108978,98830
108859,98811
108827,98784
108815,98776
108771,98786
108705,98733
108693,98738
108663,98716
108652,98726
108665,98699
108633,98720
108647,98720
108642,98709
108654,98713
108643,98709
108650,98716
108620,98716
108645,98714
108661,98708
108659,98717
108667,98718
108647,98717
108682,98700
108648,98707
108700,98717
108664,98692
108666,98733
108687,98697
108734,98755
108708,98711
108742,98743
108739,98738
108771,98755
108818,98795
108811,98788
108873,98775
108879,98801
108937,98808
108971,98841
108992,98838
109060,98877
109073,98878
109110,98901
109120,98889
109155,98913
109175,98909
109194,98930
109208,98943
109241,98922
109253,98954
109267,98953
109253,98955
109262,98944
109285,98964
109279,98922
109283,98949
109270,98948
109306,98939
109285,98946
109277,98944
109301,98967
109287,98933
109292,98937
109306,98930
109264,98961
109300,98943
109321,98947
109294,98937
109307,98955
109314,98962
109354,98957
109340,98979
109361,98947
109380,98968
109375,98977
109424,98967
109393,98996
109435,98996
109461,98993
109468,99017
109504,99032
109532,99031
109578,99044
109572,99026
109600,99067
109590,99069
109643,99105
109656,99078
109696,99102
109714,99107
109722,99122
109731,99144
109798,99145
109821,99163
109831,99185
109837,99176
109893,99190
109903,99193
109949,99163
109943,99189
109955,99216
109997,99237
109998,99240
110075,99249
110085,99289
110113,99250
110117,99270
110126,99278
110171,99297
110220,99306
110199,99311
110245,99321
110272,99322
110305,99350
110309,99360
110352,99375
110353,99385
110389,99397
110372,99381
110406,99396
110413,99391
110435,99417
110471,99442
110482,99456
110504,99477
110513,99464
110536,99444
110548,99448
110592,99461
110613,99484
110598,99477
110653,99502
110656,99508
110693,99487
110684,99494
110737,99505
110729,99527
110719,99524
110764,99519
110768,99540
110782,99546
110807,99573
110832,99575
110837,99560
110846,99570
110874,99583
110855,99590
110902,99588
110898,99597
110948,99613
110954,99625
110965,99628
110962,99626
110971,99626
110998,99651
111020,99635
111007,99656
111062,99646
111042,99653
111081,99690
111090,99698
111128,99701
111108,99683
111144,99691
111154,99694
111176,99688
111192,99718
111213,99708
111181,99724
111223,99722
111234,99751
111235,99731
111279,99773
111291,99780
111322,99742
111349,99777
111346,99778
111382,99790
111379,99821
111413,99797
111421,99816
111446,99815
111505,99864
111497,99846
111515,99865
111544,99848
111571,99862
111569,99876
111606,99882
111621,99898
111645,99882
111660,99910
111639,99909
111675,99931
111699,99923
111709,99909
111654,99914
111649,99888
111561,99877
111500,99823
111441,99802
111326,99759
111216,99728
111099,99627
110968,99609
110805,99511
110694,99488
110575,99422
110404,99377
110300,99327
110173,99296
110060,99228
109935,99178
109801,99123
109681,99066
109594,99018
109487,98997
109359,98950
109291,98927
109201,98874
109122,98854
109049,98804
109005,98803
108923,98777
108936,98758
108887,98740
108827,98724
108855,98743
108818,98730
108828,98726
108804,98736
108825,98690
108811,98722
108813,98704
108787,98718
108814,98703
108815,98717
108833,98745
108813,98723
108857,98723
108851,98733
108865,98727
108888,98745
108889,98740
108886,98749
108880,98730
108938,98755
108905,98760
108938,98780
108942,98790
108936,98777
108995,98803
108998,98777
109016,98811
109025,98809
109097,98834
109120,98822
109120,98865
109175,98874
109245,98894
109243,98912
109291,98896
109306,98927
109329,98926
109366,98916
109372,98937
109409,98928
109415,98964
109413,98938
109439,98954
109428,98950
109449,98967
109447,98956
109455,98976
109472,98947
109464,98967
109452,98965
109475,98948
109428,98954
109429,98967
109461,98933
109423,98961
109442,98937
109405,98948
109443,98935
109398,98934
109448,98949
109391,98928
109434,98949
109444,98937
109416,98941
109452,98943
109470,98947
109460,98965
109491,98963
109493,98968
109495,98974
109513,98982
109529,99015
109550,99002
109582,98994
109580,99007
109599,99018
109646,99020
109671,99029
109679,99069
109714,99074
109723,99048
109785,99086
109786,99078
109806,99091
109846,99096
109834,99107
109885,99123
109873,99121
109934,99136
109962,99136
109980,99138
110001,99164
110027,99174
110049,99194
110063,99185
110107,99195
110118,99176
110116,99230
110163,99224
110189,99238
110209,99234
110243,99253
110251,99286
110287,99275
110279,99280
110322,99280
110336,99295
110369,99323
110411,99325
110412,99346
110402,99340
110444,99332
110476,99360
110482,99361
110506,99360
110521,99383
110549,99404
110566,99379
110585,99392
110608,99417
110601,99416
110652,99417
110668,99437
110666,99458
110728,99455
110690,99459
110720,99481
110767,99472
110750,99486
110819,99485
110791,99499
110808,99489
110844,99506
110857,99520
110847,99532
110905,99533
110905,99557
110933,99550
110935,99560
110935,99548
110978,99562
111009,99572
111020,99593
110994,99587
111068,99587
111075,99622
111072,99607
111121,99587
111101,99622
111119,99638
111137,99618
111164,99635
111162,99634
111181,99621
111212,99657
111229,99669
111251,99660
111256,99660
111275,99668
111280,99670
111288,99710
111299,99685
111332,99710
111337,99717
111351,99718
111378,99739
111419,99728
111417,99734
111442,99740
111471,99787
111496,99764
111543,99795
111537,99825
111575,99795
111565,99792
111605,99792
111617,99826
111625,99846
111654,99839
111726,99862
111709,99866
111732,99872
111756,99892
111779,99886
111787,99902
111804,99909
111839,99910
111844,99954
111866,99922
111866,99942
111844,99934
111854,99898
111789,99912
111710,99875
111652,99814
111524,99782
111467,99744
111335,99710
111195,99633
111047,99593
110909,99536
110762,99471
110661,99414
110468,99335
110382,99280
110225,99230
110118,99188
109991,99129
109857,99071
109754,99023
109646,98995
109559,98921
109464,98913
109363,98881
109301,98867
109203,98820
109159,98789
109110,98767
109076,98771
109017,98748
109024,98731
108977,98741
108923,98729
108948,98736
108932,98719
108953,98753
108929,98729
108932,98740
108946,98720
108992,98715
108979,98737
108987,98757
109006,98752
109013,98764
109019,98768
109051,98775
109042,98776
109072,98786
109074,98807
109102,98779
109117,98791
109099,98805
109137,98808
109155,98830
109154,98821
109200,98856
109182,98853
109206,98839
109257,98878
109262,98860
109325,98889
109327,98902
109361,98928
109415,98958
109468,98927
109499,98951
109521,98968
109526,98976
109582,98991
109581,98991
109606,99019
109636,98994
109634,99009
109624,99031
109664,99017
109671,99046
109638,99012
109650,99034
109662,99022
109641,99009
109640,99007
109623,99016
109640,98973
109612,98999
109642,99017
109605,98997
109615,98972
109619,99005
109596,98984
109599,98966
109587,98972
109595,98985
109590,98986
109596,98998
109589,98993
109623,98966
109623,98985
109628,98996
109601,99000
109634,98990
109655,99019
109626,98996
109669,99006
109685,99023
109719,99033
109733,99062
109725,99047
109779,99049
109783,99083
109813,99073
109814,99086
109849,99060
109843,99074
109918,99114
109906,99119
109944,99113
109969,99139
109995,99147
110015,99149
110045,99162
110078,99157
110100,99192
110112,99184
110131,99205
110165,99226
110196,99216
110202,99223
110231,99227
110237,99251
110281,99255
110307,99262
110336,99307
110358,99283
110377,99295
110403,99303
110415,99295
110428,99334
110475,99288
110507,99320
110522,99362
110511,99361
110570,99360
110560,99376
110605,99398
110603,99396
110655,99386
110666,99405
110686,99407
110700,99441
110735,99452
110752,99449
110773,99444
110796,99461
110793,99465
110801,99470
110831,99452
110848,99514
110844,99511
110884,99497
110884,99503
110932,99509
110940,99515
110946,99525
111009,99526
110982,99571
110977,99550
111032,99562
111025,99557
111041,99591
111063,99602
111074,99576
111089,99577
111111,99591
111099,99602
111127,99617
111149,99614
111168,99618
111193,99638
111197,99634
111207,99638
111204,99646
111243,99659
111291,99669
111287,99688
111280,99683
111301,99661
111308,99673
111296,99671
111333,99705
111324,99666
111360,99686
111397,99717
111404,99695
111431,99728
111424,99725
111464,99745
111452,99751
111478,99756
111509,99764
111531,99767
111540,99786
111555,99794
111579,99787
111624,99826
111603,99813
111646,99835
111652,99832
111683,99841
111713,99817
111722,99878
111769,99877
111751,99884
111785,99879
111815,99873
111864,99894
111829,99906
111854,99905
111894,99910
111910,99914
111933,99934
111916,99933
111898,99935
111869,99903
111825,99908
111774,99857
111688,99832
111551,99774
111448,99721
111346,99644
111183,99626
111041,99540
110914,99500
110793,99420
110607,99395
110479,99316
110349,99261
110201,99191
110085,99144
109964,99085
109866,99042
109756,99008
109604,98971
109538,98927
109451,98879
109338,98856
109293,98826
109231,98819
109175,98772
109131,98780
109096,98762
109072,98735
109021,98748
109014,98735
109008,98721
108997,98728
109002,98741
108997,98732
109011,98715
109006,98746
109002,98741
109017,98736
109085,98769
109074,98778
109081,98757
109123,98790
109107,98775
109130,98800
109127,98783
109171,98810
109207,98793
109204,98820
109257,98813
109243,98838
109291,98868
109309,98849
109311,98875
109322,98868
109369,98859
109369,98912
109435,98914
109461,98907
109499,98952
109538,98973
109562,98983
109622,98986
109647,99025
109704,98990
109705,99039
109713,99038
109772,99033
109781,99090
109803,99078
109853,99069
109813,99090
109841,99088
109848,99082
109823,99075
109851,99083
109841,99101
109836,99089
109836,99081
109806,99065
109830,99097
109805,99076
109824,99083
109795,99080
109828,99072
109790,99061
109795,99052
109778,99040
109821,99061
109783,99024
109768,99059
109799,99062
109796,99059
109831,99090
109788,99079
109818,99106
109829,99101
109860,99071
109831,99084
109877,99090
109875,99102
109914,99120
109936,99138
109978,99128
109979,99148
110013,99174
110004,99147
110048,99164
110064,99197
110063,99190
110120,99206
110112,99221
110177,99200
110183,99233
110252,99240
110233,99269
110278,99269
110300,99281
110319,99283
110368,99304
110425,99320
110383,99320
110441,99347
110483,99347
110475,99381
110531,99400
110528,99375
110603,99397
110591,99401
110634,99437
110657,99441
110673,99449
110713,99428
110725,99445
110719,99433
110754,99475
110789,99470
110822,99500
110857,99460
110853,99511
110873,99513
110889,99519
110910,99505
110932,99537
110984,99547
110961,99565
110955,99564
111000,99563
111028,99567
111054,99560
111058,99601
111080,99601
111103,99622
111129,99586
111163,99606
111155,99630
111186,99608
111189,99634
111197,99655
111234,99672
111233,99666
111266,99676
111289,99661
111322,99697
111294,99685
111329,99670
111368,99712
111372,99702
111378,99721
111389,99720
111404,99704
111436,99715
111440,99738
111453,99732
111466,99734
111499,99757
111481,99768
111517,99788
111540,99782
111543,99782
111568,99804
111577,99795
111604,99804
111647,99816
111638,99827
111657,99826
111668,99849
111694,99858
111664,99853
111730,99872
111740,99856
111744,99870
111779,99868
111763,99870
111821,99892
111814,99896
111824,99900
111855,99909
111870,99928
111906,99947
111929,99928
111952,99965
111986,99962
112005,99978
112009,99992
112061,100009
112083,100005
112091,100005
112126,100036
112129,100026
112169,100059
112165,100049
112227,100041
112247,100077
112218,100073
112253,100081
112259,100065
112235,100095
112221,100065
112177,100046
112122,100029
112018,99988
111950,99942
111841,99868
111672,99829
111550,99745
111416,99703
111255,99637
111128,99606
110976,99550
110834,99456
110683,99412
110528,99363
110379,99261
110271,99231
110150,99178
110044,99120
109955,99089
109803,99056
109749,99027
109674,98971
109576,98967
109517,98907
109451,98919
109401,98896
109374,98910
109306,98865
109320,98871
109278,98852
109270,98839
109271,98862
109246,98854
109280,98836
109251,98854
109276,98828
109290,98863
109293,98858
109302,98875
109326,98855
109335,98880
109357,98904
109371,98913
109397,98912
109387,98896
109442,98927
109469,98945
109464,98947
109490,98965
109479,98950
109547,98969
109505,98988
109545,98997
109593,98995
109623,99007
109647,99013
109703,99027
109723,99049
109778,99060
109791,99098
109866,99115
109900,99134
109922,99121
109953,99178
109983,99179
110017,99165
110039,99182
110077,99192
110082,99176
110120,99207
110111,99230
110121,99212
110113,99214
110143,99212
110112,99234
110131,99224
110140,99209
110105,99252
110114,99226
110122,99216
110088,99217
110108,99211
110078,99188
110088,99202
110072,99193
110067,99197
110058,99184
110049,99183
110022,99167
110016,99194
110041,99198
110042,99192
110057,99188
110035,99200
110076,99177
110061,99192
110087,99217
110088,99224
110091,99223
110098,99235
110123,99241
110153,99229
110177,99271
110229,99255
110226,99266
110234,99266
110281,99291
110279,99294
110303,99313
110329,99328
110352,99331
110400,99350
110400,99360
110414,99356
110432,99353
110467,99364
110503,99398
110507,99390
110549,99400
110582,99398
110617,99435
110631,99430
110658,99444
110677,99452
110709,99479
110677,99496
110739,99465
110773,99515
110831,99490
110840,99517
110838,99521
110860,99544
110852,99521
110909,99559
110895,99545
110939,99572
110951,99569
110982,99569
111031,99600
111013,99585
111022,99590
111093,99617
111081,99607
111116,99641
111123,99607
111155,99631
111178,99647
111212,99667
111208,99660
111206,99678
111234,99673
111249,99680
111271,99708
111293,99672
111309,99698
111278,99701
111313,99733
111334,99722
111370,99721
111358,99753
111394,99734
111416,99741
111395,99762
111429,99764
111445,99779
111463,99763
111471,99774
111502,99783
111476,99795
111531,99824
111528,99804
111580,99820
111564,99809
111597,99800
111599,99822
111588,99829
111644,99847
111620,99860
111656,99863
111668,99855
111698,99873
111696,99845
111717,99882
111724,99883
111767,99893
111743,99903
111806,99889
111801,99893
111814,99890
111817,99921
111838,99922
111856,99919
111884,99940
111927,99957
111943,99974
111941,99961
111952,99983
111991,99958
112015,99993
112022,99995
112069,100016
112086,99999
112096,100034
112115,100050
112170,100043
112181,100053
112185,100075
112232,100082
112257,100108
112251,100101
112311,100128
112316,100122
112364,100122
112330,100136
112377,100132
112395,100144
112378,100147
112344,100102
112312,100108
112225,100065
112165,100036
112050,99983
111895,99955
111737,99879
111618,99801
111446,99764
111311,99672
111184,99625
111042,99575
110881,99483
110752,99461
110597,99392
110454,99342
110322,99275
110209,99226
110097,99183
109994,99148
109877,99111
109791,99072
109700,99045
109635,98994
109569,98971
109531,98964
109477,98933
109422,98936
109361,98920
109381,98923
109347,98894
109334,98879
109337,98879
109295,98890
109334,98901
109321,98891
109311,98899
109345,98922
109342,98928
109384,98934
109402,98932
109430,98931
109457,98963
109479,98934
109515,98966
109487,98979
109540,98997
109565,98994
109580,99026
109590,99009
109615,99021
109627,99034
109678,99050
109672,99062
109731,99076
109755,99081
109795,99088
109817,99122
109854,99156
109862,99145
109942,99184
109972,99179
110018,99215
110058,99211
110080,99233
110109,99223
110154,99254
110146,99277
110188,99249
110197,99278
110191,99281
110216,99267
110202,99291
110240,99284
110179,99291
110189,99266
110181,99273
110212,99253
110154,99284
110185,99262
110172,99262
110142,99248
110149,99260
110149,99258
110111,99251
110116,99224
110094,99241
110088,99221
110051,99221
110090,99205
110070,99217
110052,99243
110084,99234
110087,99226
110079,99241
110100,99231
110103,99253
110105,99244
110125,99238
110135,99256
110144,99245
110154,99251
110211,99271
110224,99299
110237,99299
110278,99306
110285,99324
110304,99326
110385,99355
110338,99324
110406,99344
110435,99371
110438,99362
110488,99381
110503,99402
110530,99416
110557,99433
110552,99448
110612,99436
110642,99465
110666,99459
110687,99463
110705,99463
110743,99494
110777,99485
110780,99510
110794,99534
110837,99519
110863,99547
110874,99536
110893,99546
110933,99550
110953,99579
111003,99582
111018,99584
111024,99585
111019,99615
111073,99597
111074,99619
111119,99618
111142,99645
111162,99650
111187,99648
111187,99685
111218,99681
111210,99699
111250,99714
111280,99719
111308,99709
111342,99715
111363,99727
111397,99742
111407,99741
111408,99773
111465,99770
111473,99789
111494,99777
111493,99791
111535,99795
111577,99822
111586,99819
111623,99855
111653,99830
111651,99852
111672,99865
111700,99892
111715,99878
111754,99876
111795,99893
111817,99914
111837,99943
111834,99909
111886,99932
111870,99941
111925,99956
111948,99970
111979,99948
111987,99985
112016,99970
112026,100011
112079,100007
112078,100027
112096,100017
112144,100062
112150,100056
112205,100054
112238,100096
112239,100101
112276,100106
112297,100095
112339,100130
112347,100137
112388,100149
112405,100160
112447,100154
112476,100157
112468,100174
112523,100190
112542,100223
112580,100204
112629,100239
112638,100271
112670,100265
112706,100251
112712,100259
112762,100307
112751,100284
112799,100319
112807,100296
112877,100327
112882,100332
112872,100329
112914,100358
112906,100349
112918,100359
112886,100333
112830,100305
112719,100282
112648,100232
112502,100159
112372,100110
112211,100056
112036,99990
111868,99921
111740,99879
111592,99795
111426,99734
111312,99695
111206,99624
111092,99587
110970,99551
110850,99481
110703,99436
110614,99373
110511,99370
110470,99345
110382,99310
110315,99290
110246,99279
110211,99242
110137,99240
110128,99211
110077,99191
110114,99229
110087,99201
110046,99217
110072,99199
110073,99208
110090,99212
110103,99218
110130,99237
110161,99223
110132,99260
110167,99251
110190,99253
110262,99272
110228,99299
110260,99287
110334,99304
110348,99322
110369,99344
110404,99343
110425,99382
110457,99381
110503,99374
110529,99397
110591,99416
110623,99447
110648,99447
110723,99488
110753,99474
110806,99510
110866,99540
110892,99558
110967,99575
111007,99585
111062,99615
111085,99607
111127,99652
111131,99642
111150,99646
111161,99669
111193,99656
111164,99658
111143,99621
111153,99647
111130,99624
111145,99627
111081,99614
111089,99599
111074,99604
111016,99577
111005,99574
111005,99584
110969,99557
110950,99559
110926,99548
110891,99537
110896,99524
110876,99527
110859,99510
110833,99498
110843,99479
110807,99492
110815,99480
110803,99491
110798,99515
110798,99479
110788,99475
110787,99480
110815,99498
110802,99483
110840,99527
110826,99521
110843,99503
110865,99531
110896,99507
110896,99524
110894,99534
110945,99528
110935,99549
111002,99570
110991,99596
111041,99579
111065,99571
111036,99597
111088,99592
111093,99606
111139,99616
111178,99641
111192,99655
111196,99658
111249,99673
111257,99676
111283,99698
111324,99691
111316,99696
111409,99696
111363,99731
111435,99754
111449,99755
111455,99772
111500,99754
111509,99762
111556,99801
111542,99776
111569,99799
111605,99805
111610,99801
111660,99815
111684,99796
111652,99828
111696,99836
111690,99831
111725,99850
111693,99838
111751,99867
111740,99871
111741,99875
111802,99867
111794,99884
111804,99902
111815,99871
111854,99887
111842,99889
111875,99892
111895,99920
111892,99905
111933,99915
111927,99920
111941,99938
111979,99949
111986,99928
112003,99956
111983,99939
112005,99992
112044,99952
112071,99975
112089,99984
112123,99987
112155,100000
112161,100016
112207,100050
112229,100044
112247,100053
112291,100057
112305,100061
112289,100076
112363,100071
112381,100096
112373,100074
112414,100089
112415,100119
112435,100124
112440,100097
112438,100113
112385,100082
112326,100083
112253,100026
112174,99987
112060,99958
111892,99883
111793,99844
111656,99778
111538,99743
111429,99686
111265,99630
111218,99597
111052,99558
111003,99507
110893,99461
110818,99400
110723,99403
110655,99384
110568,99359
110499,99311
110461,99281
110413,99279
110375,99271
110358,99258
110347,99275
110332,99276
110339,99257
110343,99273
110318,99261
110341,99275
110350,99262
110379,99291
110413,99288
110436,99318
110467,99339
110467,99334
110536,99346
110578,99361
110587,99371
110651,99389
110679,99392
110736,99434
110757,99439
110807,99468
110870,99494
110908,99502
110941,99531
110985,99548
111058,99565
111100,99576
111170,99598
111236,99632
111240,99649
111354,99656
111422,99730
111491,99752
111553,99753
111625,99778
111721,99815
111757,99858
111788,99857
111836,99890
111902,99896
111911,99924
111941,99911
111970,99928
111991,99921
111969,99920
112002,99948
111979,99925
111991,99927
111949,99921
111939,99910
111925,99890
111901,99883
111867,99854
111856,99868
111835,99829
111826,99882
111792,99858
111739,99847
111765,99824
111733,99824
111741,99824
111721,99807
111718,99817
111720,99781
111752,99785
111694,99789
111721,99790
111719,99802
111706,99817
111747,99818
111756,99812
111761,99847
111787,99850
111799,99842
111802,99835
111850,99849
111837,99863
111892,99884
111910,99872
111940,99909
111956,99929
111949,99933
112034,99909
112022,99959
112080,99958
112101,99959
112121,99975
112183,99993
112166,100014
112234,100040
112263,100012
112302,100033
112324,100038
112357,100052
112398,100085
112430,100116
112460,100113
112495,100135
112519,100137
112573,100148
112568,100162
112633,100183
112616,100170
112665,100175
112686,100198
112721,100185
112740,100209
112746,100245
112802,100227
112820,100235
112838,100236
112870,100246
112884,100283
112930,100278
112935,100311
112954,100297
112978,100301
113003,100305
113018,100331
113078,100337
113079,100345
113108,100334
113149,100364
113123,100386
113178,100385
113171,100402
113182,100409
113192,100416
113243,100404
113242,100412
113279,100449
113274,100440
113295,100439
113379,100444
113357,100461
113389,100467
113413,100466
113434,100498
113464,100499
113475,100541
113511,100496
113535,100528
113532,100530
113552,100546
113577,100550
113607,100558
113625,100569
113600,100566
113636,100547
113573,100530
113562,100550
113494,100489
113428,100478
113267,100410
113173,100367
113012,100302
112807,100240
112628,100158
112496,100095
112303,100043
112143,99967
111960,99893
111861,99842
111738,99807
111635,99738
111520,99726
111409,99664
111289,99616
111214,99592
111155,99564
111050,99520
110971,99506
110920,99495
110855,99465
110818,99461
110786,99457
110744,99430
110729,99412
110698,99426
110710,99400
110696,99423
110698,99429
110704,99427
110686,99430
110743,99455
110758,99452
110777,99480
110796,99469
110825,99469
110843,99483
110860,99485
110906,99498
110917,99519
110986,99518
111011,99540
111021,99565
111076,99552
111094,99569
111111,99582
111164,99626
111219,99625
111223,99634
111283,99656
111345,99679
111398,99706
111423,99709
111492,99746
111552,99771
111632,99769
111626,99831
111701,99823
111727,99853
111760,99853
111814,99849
111805,99862
111804,99873
111805,99855
111806,99845
111782,99839
111793,99840
111779,99840
111743,99829
111734,99824
111702,99804
111669,99771
111672,99817
111619,99772
111582,99788
111568,99766
111551,99743
111520,99739
111519,99731
111494,99729
111439,99730
111464,99704
111471,99712
111448,99711
111456,99696
111447,99699
111456,99694
111412,99672
111472,99694
111481,99709
111484,99701
111480,99693
111497,99707
111489,99702
111525,99722
111521,99737
111570,99729
111540,99750
111602,99734
111615,99787
111646,99786
111660,99784
111693,99794
111704,99802
111736,99823
111734,99815
111793,99830
111817,99830
111839,99845
111868,99863
111908,99861
111915,99901
111925,99897
111984,99885
112009,99905
112030,99926
112049,99910
112093,99935
112108,99955
112147,99942
112167,99957
112179,99968
112218,99984
112250,99999
112223,100009
112289,100013
112285,100037
112313,100034
112349,100061
112390,100046
112391,100076
112429,100067
112460,100077
112485,100105
112504,100096
112521,100130
112536,100131
112555,100117
112594,100141
112599,100139
112656,100155
112646,100182
112688,100178
112696,100193
112744,100185
112750,100204
112776,100216
112826,100230
112838,100226
112847,100246
112874,100246
112891,100233
112916,100272
112940,100266
112943,100265
112937,100271
112948,100276
112900,100215
112853,100223
112757,100194
112670,100130
112552,100076
112395,100039
112205,99981
112053,99914
111885,99846
111747,99763
111589,99725
111449,99673
111299,99584
111177,99542
111045,99477
110941,99428
110788,99384
110668,99352
110565,99299
110465,99250
110378,99228
110269,99199
110217,99166
110138,99117
110084,99127
110001,99111
109975,99073
109954,99060
109920,99066
109925,99041
109924,99062
109911,99082
109919,99059
109875,99047
109917,99076
109952,99069
109972,99060
109976,99101
109991,99115
110017,99112
110055,99135
110105,99147
110136,99144
110146,99171
110206,99186
110212,99195
110261,99207
110260,99224
110290,99239
110339,99242
110371,99245
110407,99278
110427,99271
110466,99300
110479,99309
110540,99346
110589,99326
110625,99343
110677,99390
110713,99407
110789,99428
110817,99430
110883,99479
110910,99471
110964,99489
110964,99509
111016,99520
111046,99526
111054,99530
111085,99546
111087,99549
111088,99550
111107,99540
111065,99533
111056,99517
111081,99520
111050,99504
111042,99515
111036,99514
110990,99480
111002,99471
110988,99484
110986,99515
110988,99458
110938,99469
110946,99479
110974,99452
110939,99456
110946,99482
110921,99479
110947,99463
110929,99468
110936,99459
110955,99490
110945,99481
110967,99484
110955,99481
110978,99480
111012,99500
110973,99507
111012,99506
111057,99502
111044,99533
111057,99518
111077,99552
111071,99533
111145,99572
111136,99561
111173,99567
111183,99588
111239,99590
111260,99617
111251,99608
111282,99624
111321,99608
111356,99638
111354,99651
111393,99631
111401,99670
111438,99676
111456,99702
111455,99687
111516,99704
111510,99683
111552,99728
111577,99737
111590,99714
111619,99722
111658,99752
111668,99741
111723,99798
111714,99783
111741,99792
111781,99810
111799,99802
111833,99824
111831,99824
111866,99852
111893,99851
111919,99854
111935,99865
111960,99891
112021,99889
111992,99895
112045,99888
112086,99916
112083,99944
112135,99934
112146,99974
112192,99963
112188,99950
112227,99971
112260,100008
112274,99985
112293,99991
112306,100020
112342,100029
112355,100014
112351,100005
112386,100027
112370,100019
112320,100011
112308,99991
112232,99978
112130,99923
112012,99900
111883,99827
111727,99771
111589,99682
111394,99608
111271,99565
111138,99500
110948,99453
110845,99410
110724,99338
110573,99301
110451,99249
110295,99213
110201,99126
110087,99114
110019,99056
109897,99058
109816,99023
109754,98976
109705,98983
109622,98937
109587,98910
109550,98914
109504,98901
109483,98856
109458,98870
109437,98882
109452,98883
109453,98893
109469,98867
109451,98892
109474,98895
109507,98895
109529,98913
109508,98912
109565,98938
109583,98947
109627,98965
109587,98965
109647,98965
109687,98958
109670,98990
109697,99009
109751,99015
109773,99014
109793,99029
109806,99055
109841,99046
109849,99051
109890,99070
109895,99088
109972,99091
110010,99133
110035,99131
110100,99155
110144,99178
110209,99208
110224,99194
110245,99207
110281,99207
110281,99235
110349,99242
110357,99263
110331,99260
110369,99258
110389,99245
110357,99243
110377,99249
110360,99238
110346,99237
110367,99256
110331,99251
110358,99224
110322,99231
110324,99212
110306,99223
110325,99220
110275,99191
110267,99194
110253,99201
110244,99185
110232,99180
110236,99178
110248,99190
110222,99177
110237,99154
110241,99167
110199,99192
110223,99174
110236,99185
110229,99187
110263,99188
110243,99188
110272,99194
110270,99208
110301,99169
110315,99220
110306,99220
110354,99214
110361,99239
110397,99234
110402,99255
110435,99264
110468,99268
110478,99277
110547,99284
110551,99280
110561,99313
110566,99305
110614,99345
110666,99341
110622,99330
110669,99391
110676,99369
110760,99365
110754,99395
110793,99393
110792,99400
