ir,red
116345,100987
116301,100981
116383,101010
116415,101040
116441,101041
116436,101019
116443,101004
116525,101048
116531,101092
116568,101067
116592,101094
116590,101030
116674,101108
116719,101176
116757,101152
116715,101116
116727,101099
116800,101183
116856,101213
116883,101218
116909,101232
116878,101201
116956,101256
117008,101266
117183,101352
117210,101342
117210,101349
117231,101323
117290,101369
117347,101406
117338,101396
117380,101385
117381,101367
117441,101437
117485,101472
117510,101444
117510,101479
117507,101449
117595,101502
117625,101521
117631,101531
117616,101486
117667,101489
117696,101550
117756,101565
117753,101564
117791,101564
117783,101548
117851,101624
117896,101620
117884,101636
117918,101607
117882,101574
117957,101647
117998,101653
117984,101644
118019,101640
118012,101631
118074,101686
118108,101697
118075,101688
118129,101685
118116,101661
118152,101720
118215,101767
118205,101732
118184,101735
118243,101727
118297,101775
118321,101790
118323,101767
118332,101752
118370,101785
118404,101830
118420,101845
118426,101851
118397,101796
118367,101772
118372,101825
118311,101766
118142,101703
117938,101595
117659,101456
117374,101370
117086,101267
116759,101131
116423,100976
116137,100875
115967,100834
115798,100779
115650,100700
115412,100579
115323,100536
115254,100540
115102,100504
114982,100446
114876,100373
114790,100343
114757,100340
114729,100347
114677,100311
114616,100265
114630,100261
114635,100299
114684,100310
114694,100308
114639,100272
114672,100295
114765,100352
114764,100351
114805,100379
114838,100360
114859,100391
114976,100449
115022,100472
115035,100450
115056,100440
115122,100488
115191,100537
115255,100547
115235,100561
115260,100516
115312,100553
115392,100627
115379,100601
115411,100656
115425,100597
115473,100629
115549,100687
115586,100692
115590,100695
115600,100678
115636,100670
115700,100736
115714,100731
115760,100751
115759,100750
115858,100778
115922,100788
115961,100792
116043,100851
116012,100853
116087,100857
116198,100919
116229,100937
116253,100977
116237,100921
116301,100948
116337,100957
116324,100958
116306,100966
116288,100935
116278,100955
116339,100979
116284,100958
116287,100975
116207,100905
116214,100908
116246,100928
116234,100956
116184,100900
116093,100848
116130,100878
116126,100885
116127,100893
116087,100851
116010,100818
116025,100830
116070,100893
116047,100877
116032,100883
116049,100841
116072,100867
116084,100891
116048,100864
116107,100862
116068,100827
116113,100885
116162,100916
116185,100927
116187,100933
116182,100877
116257,100948
116304,100959
116326,100997
116320,100956
116337,100954
116436,100991
116466,101068
116483,101054
116457,101029
116492,101001
116570,101067
116672,101121
116681,101135
116652,101116
116698,101092
116739,101136
116777,101159
116830,101143
116843,101169
116841,101161
116920,101202
116943,101218
116941,101221
116993,101225
116971,101215
117041,101255
117075,101283
117129,101255
117121,101276
117088,101250
117144,101321
117181,101304
117183,101297
117204,101255
117158,101265
117231,101321
117258,101352
117251,101321
117193,101310
117176,101322
117287,101348
117286,101370
117322,101391
117272,101346
117256,101317
117314,101370
117356,101406
117359,101397
117331,101350
117281,101318
117373,101382
117363,101400
117387,101386
117312,101346
117351,101353
117394,101370
117393,101394
117391,101408
117398,101365
117398,101340
117418,101416
117460,101427
117443,101402
117479,101378
117448,101387
117516,101466
117560,101484
117568,101450
117537,101444
117594,101448
117658,101512
117679,101497
117666,101507
117688,101491
117680,101476
117747,101569
117792,101553
117771,101520
117750,101506
117719,101486
117746,101489
117612,101448
117452,101400
117232,101280
116980,101173
116715,101060
116440,100948
116170,100831
115878,100731
115700,100638
115517,100617
115386,100539
115192,100471
114987,100376
114844,100320
114787,100324
114608,100269
114488,100200
114381,100121
114336,100121
114340,100133
114257,100080
114190,100079
114157,100022
114188,100030
114229,100123
114216,100104
114212,100085
114219,100048
114260,100078
114315,100134
114327,100133
114336,100152
114352,100139
114384,100151
114470,100208
114519,100231
114561,100211
114503,100219
114557,100271
114696,100287
114718,100309
114729,100309
114749,100285
114775,100321
114854,100358
114870,100365
114881,100370
114843,100336
114903,100386
114964,100406
114982,100395
114993,100433
114987,100407
115025,100435
115093,100454
115115,100469
115148,100483
115184,100404
115251,100483
115300,100557
115381,100573
115434,100588
115438,100550
115529,100607
115577,100657
115615,100668
115636,100668
115616,100621
115691,100660
115735,100723
115683,100715
115691,100679
115631,100643
115684,100683
115694,100691
115677,100695
115677,100649
115638,100613
115623,100657
115652,100657
115664,100640
115667,100625
115596,100595
115626,100635
115667,100688
115678,100663
115611,100665
115605,100616
115653,100665
115691,100687
115708,100676
115668,100659
115686,100649
115739,100679
115797,100721
115817,100703
115810,100673
115822,100699
115881,100771
115939,100774
115971,100784
116009,100794
116021,100814
116109,100822
116145,100867
116203,100879
116203,100877
116222,100825
116323,100895
116396,100970
116432,100969
116460,100963
116500,100973
116575,101046
116616,101042
116686,101056
116703,101039
116720,101036
116820,101102
116873,101131
116894,101172
116933,101115
116921,101145
117047,101190
117075,101223
117159,101209
117133,101203
117130,101233
117245,101286
117263,101261
117300,101334
117318,101283
117346,101269
117392,101323
117462,101395
117493,101373
117499,101376
117513,101358
117558,101398
117576,101404
117607,101428
117658,101439
117662,101409
117704,101454
117776,101494
117737,101504
117736,101462
117824,101481
117828,101506
117907,101546
117879,101555
117904,101511
117912,101504
117966,101585
117980,101559
117981,101533
117996,101526
117984,101545
118070,101582
118035,101598
118051,101592
118066,101586
118055,101573
118114,101619
118120,101631
118159,101604
118134,101599
118174,101643
118215,101664
118258,101651
118255,101699
118241,101667
118280,101695
118327,101732
118412,101749
118424,101729
118395,101733
118446,101759
118548,101810
118591,101820
118579,101798
118592,101807
118575,101818
118671,101813
118686,101841
118673,101851
118624,101756
118539,101778
118470,101729
118255,101658
118010,101538
117653,101356
117338,101229
117021,101118
116656,100981
116331,100863
116029,100754
115824,100682
115683,100645
115538,100558
115393,100497
115228,100406
115131,100404
115060,100359
115007,100327
114884,100299
114823,100249
114791,100244
114810,100265
114762,100245
114721,100257
114682,100182
114766,100203
114828,100299
114792,100258
114783,100266
114787,100271
114863,100279
114913,100321
114997,100380
115027,100342
114985,100297
115078,100364
115145,100422
115167,100435
115192,100439
115201,100409
115283,100462
115323,100491
115380,100521
115361,100507
115318,100464
115418,100511
115417,100537
115463,100554
115496,100520
115424,100498
115510,100557
115517,100579
115531,100581
115549,100558
115534,100523
115576,100602
115630,100628
115632,100619
115711,100640
115700,100614
115752,100710
115842,100722
115933,100726
115939,100742
115979,100748
116066,100797
116123,100832
116128,100838
116130,100818
116149,100809
116210,100831
116178,100865
116228,100857
116189,100824
116144,100772
116176,100806
116159,100841
116115,100798
116128,100819
116067,100751
116054,100789
116084,100790
116046,100807
115986,100759
116001,100710
116007,100770
116025,100768
115959,100776
115902,100745
115924,100704
115992,100752
115990,100760
115995,100753
115991,100734
115933,100712
115985,100751
116022,100777
115983,100786
115982,100750
116031,100752
116110,100798
116119,100813
116131,100804
116165,100808
116100,100794
116231,100831
116235,100861
116317,100868
116315,100851
116298,100846
116358,100917
116405,100940
116445,100965
116477,100931
116500,100948
116575,100965
116595,100995
116638,101019
116620,101004
116646,101000
116716,101039
116788,101058
116787,101048
116773,101033
116829,101034
116871,101142
116923,101126
116939,101134
116953,101103
116949,101090
117049,101174
117103,101179
117114,101220
117106,101193
117125,101171
117222,101229
117228,101240
117223,101221
117235,101198
117280,101254
117361,101277
117387,101302
117370,101296
117413,101292
117393,101281
117466,101325
117532,101373
117541,101334
117518,101301
117525,101335
117590,101409
117642,101379
117612,101366
117615,101358
117622,101362
117716,101444
117727,101435
117687,101420
117677,101392
117698,101434
117803,101485
117800,101471
117790,101459
117814,101438
117788,101430
117868,101503
117870,101492
117901,101476
117892,101478
117916,101471
117959,101557
118004,101532
118019,101540
118030,101505
118000,101531
118088,101549
118147,101581
118153,101584
118104,101540
118176,101607
118231,101623
118212,101615
118218,101579
118154,101544
118118,101547
118070,101528
117867,101461
117662,101346
117344,101208
117088,101117
116804,101011
116445,100872
116131,100736
115870,100601
115644,100534
115490,100480
115316,100413
115152,100335
114994,100246
114932,100249
114854,100250
114762,100185
114616,100130
114503,100061
114509,100104
114515,100086
114452,100057
114467,100096
114420,100027
114441,100076
114484,100089
114481,100090
114529,100130
114549,100108
114613,100135
114677,100190
114687,100173
114764,100205
114764,100200
114877,100244
114940,100270
114991,100287
114999,100297
114974,100317
115087,100353
115174,100381
115227,100403
115223,100404
115269,100369
115328,100426
115395,100460
115415,100456
115439,100456
115438,100429
115477,100489
115534,100539
115560,100533
115613,100506
115550,100501
115667,100569
115708,100562
115748,100594
115786,100600
115842,100607
115955,100690
116020,100699
116106,100751
116123,100750
116204,100741
116284,100850
116392,100900
116495,100875
116473,100875
116527,100890
116612,100953
116687,100980
116684,100987
116718,100960
116690,100935
116745,100987
116787,100979
116752,100958
116751,101001
116737,100953
116756,101005
116757,100991
116776,100982
116750,100953
116688,100904
116748,100974
116787,100984
116739,100956
116711,100948
116713,100939
116771,100984
116780,100984
116792,100982
116760,100988
116789,100946
116860,101025
116862,101031
116894,101011
116884,101031
116896,101031
116963,101069
117022,101098
117049,101080
117044,101068
117064,101077
117146,101149
117173,101172
117225,101177
117257,101171
117284,101175
117348,101233
117393,101226
117439,101273
117453,101278
117478,101267
117591,101312
117646,101334
117634,101339
117699,101359
117746,101349
117804,101398
117870,101421
117900,101438
117950,101426
117989,101439
118042,101471
118076,101497
118130,101527
118150,101519
118162,101508
118287,101580
118282,101593
118271,101605
118291,101572
118367,101609
118417,101639
118443,101672
118464,101686
118463,101652
118519,101677
118639,101731
118625,101770
118661,101741
118665,101727
118699,101750
118747,101777
118808,101799
118799,101808
118795,101772
118829,101829
118890,101835
118937,101868
118948,101821
118918,101819
118947,101877
119023,101876
118996,101901
119051,101893
119005,101835
119044,101886
119056,101913
119098,101926
119069,101914
119092,101875
119086,101919
119150,101955
119152,101942
119115,101938
119126,101932
119134,101928
119198,101972
119200,101963
119154,101960
119158,101896
119195,101953
119224,102008
119237,102009
119223,101966
119208,101931
119270,101952
119276,102036
119292,101998
119305,101995
119308,101978
119340,102000
119398,102047
119388,102040
119390,102065
119381,101991
119450,102072
119501,102099
119485,102086
119524,102112
119478,102073
119560,102120
119568,102119
119593,102119
119519,102100
119515,102067
119497,102102
119456,102045
119305,101985
119037,101880
118702,101700
118397,101577
118001,101415
117615,101262
117169,101083
116751,100926
116492,100841
116223,100744
116007,100668
115852,100585
115621,100473
115568,100485
115478,100478
115370,100412
115245,100363
115164,100322
115167,100330
115136,100330
115108,100330
115029,100273
115033,100264
115076,100305
115080,100319
115083,100291
115084,100327
115099,100292
115217,100361
115261,100391
115280,100403
115299,100412
115340,100424
115440,100478
115484,100506
115547,100509
115556,100513
115582,100507
115708,100598
115810,100614
115802,100608
115836,100660
115874,100625
115947,100700
116028,100686
115990,100721
116040,100694
116059,100698
116114,100747
116149,100771
116170,100777
116181,100738
116195,100776
116251,100799
116290,100840
116343,100845
116357,100882
116385,100844
116482,100902
116556,100941
116562,100968
116623,100960
116655,100936
116774,101015
116815,101055
116828,101058
116824,101021
116826,101028
116908,101089
116888,101089
116906,101051
116832,101032
116844,101026
116862,101048
116821,101048
116827,101040
116754,100975
116719,100975
116789,101045
116769,101031
116720,100998
116689,100944
116668,100933
116652,100987
116628,100991
116635,100963
116618,100923
116583,100903
116636,100954
116632,100943
116657,100951
116569,100911
116579,100918
116643,100960
116652,100986
116675,100993
116683,100950
116705,100970
116769,101032
116771,101025
116800,101027
116798,101017
116836,101053
116902,101061
116900,101085
116928,101093
116936,101085
116957,101091
117064,101119
117068,101144
117101,101133
117080,101127
117138,101176
117201,101203
117255,101216
117263,101224
117225,101186
117344,101228
117367,101280
117424,101289
117441,101266
117412,101251
117500,101282
117566,101360
117590,101372
117574,101344
117603,101330
117663,101377
117686,101400
117665,101404
117731,101429
117726,101377
117772,101422
117820,101456
117797,101455
117851,101447
117827,101381
117876,101449
117886,101491
117953,101519
117904,101471
117931,101455
117960,101493
118038,101535
118059,101528
118036,101520
118036,101503
118075,101537
118141,101549
118135,101543
118134,101555
118090,101523
118114,101567
118185,101564
118170,101566
118167,101582
118130,101540
118182,101583
118239,101616
118239,101611
118217,101608
118198,101570
118265,101577
118289,101636
118261,101649
118293,101644
118268,101606
118313,101645
118356,101659
118344,101648
118366,101653
118358,101626
118406,101671
118440,101710
118423,101660
118423,101671
118413,101677
118523,101707
118508,101753
118567,101744
118556,101725
118566,101692
118590,101744
118656,101771
118636,101786
118671,101774
118620,101743
118656,101795
118627,101776
118595,101747
118481,101701
118328,101619
118153,101566
117931,101475
117657,101339
117336,101190
116999,101054
116737,100970
116467,100901
116206,100786
115952,100645
115740,100548
115607,100526
115488,100489
115343,100430
115181,100360
115093,100302
115031,100294
115007,100267
114916,100235
114897,100209
114822,100170
114833,100221
114864,100234
114854,100247
114830,100195
114815,100171
114902,100254
114949,100252
114932,100253
114934,100250
114980,100230
115017,100302
115089,100344
115127,100365
115130,100311
115145,100329
115231,100398
115277,100413
115283,100445
115310,100417
115333,100411
115473,100513
115502,100539
115543,100499
115531,100500
115554,100481
115588,100550
115639,100527
115616,100543
115646,100542
115673,100560
115732,100589
115759,100609
115788,100625
115797,100620
115815,100596
115906,100658
116006,100705
116000,100703
116045,100699
116119,100700
116223,100809
116257,100799
116290,100834
116345,100811
116417,100813
116491,100883
116504,100895
116481,100881
116490,100868
116540,100867
116579,100922
116533,100910
116520,100895
116497,100877
116497,100849
116499,100889
116512,100904
116484,100856
116401,100827
116410,100825
116410,100890
116387,100823
116347,100806
116327,100785
116355,100809
116389,100831
116361,100798
116339,100796
116307,100792
116354,100809
116387,100841
116362,100879
116387,100867
116372,100801
116388,100832
116457,100879
116464,100903
116481,100870
116490,100850
116513,100900
116616,100971
116619,100956
116655,100944
116645,100918
116703,100964
116767,100999
116795,101021
116788,101029
116788,101026
116849,101055
116913,101091
116955,101074
116997,101083
116983,101045
117087,101113
117165,101156
117190,101162
117208,101169
117182,101177
117264,101205
117302,101235
117367,101258
117400,101239
117358,101229
117438,101257
117532,101303
117533,101288
117551,101299
117545,101284
117621,101335
117693,101403
117708,101407
117723,101361
117691,101337
117766,101376
117820,101410
117787,101437
117794,101440
117816,101390
117911,101443
117924,101466
118004,101502
117976,101491
117919,101440
118036,101501
118047,101526
118114,101539
118065,101549
118070,101473
118141,101537
118154,101566
118196,101560
118199,101555
118166,101520
118241,101581
118245,101613
118274,101622
118262,101618
118255,101583
118286,101633
118305,101638
118356,101640
118313,101615
118342,101571
118390,101649
118410,101684
118423,101660
118443,101645
118387,101626
118497,101676
118524,101693
118527,101698
118504,101670
118490,101680
118551,101727
118592,101727
118581,101717
118585,101731
118585,101723
118665,101771
118670,101812
118717,101809
118712,101779
118712,101774
118780,101807
118837,101867
118856,101838
118843,101820
118834,101805
118935,101869
118936,101895
118966,101909
118966,101883
118986,101855
119010,101931
119021,101950
118992,101907
118888,101837
118819,101789
118740,101760
118467,101660
118192,101516
117852,101347
117500,101226
117229,101134
116888,101003
116605,100890
116247,100750
116058,100681
115930,100639
115700,100555
115582,100493
115405,100399
115284,100371
115267,100370
115139,100318
115077,100316
115004,100240
115013,100220
115024,100270
115016,100284
115016,100290
114990,100248
115000,100250
115024,100303
115077,100321
115115,100306
115115,100278
115169,100361
115272,100379
115314,100419
115350,100411
115337,100354
115389,100448
115492,100529
115579,100524
115580,100535
115591,100505
115663,100531
115784,100589
115819,100625
115881,100627
115849,100606
115893,100654
115979,100707
116036,100685
116031,100680
116075,100696
116071,100700
116170,100742
116206,100764
116213,100740
116213,100752
116301,100785
116346,100838
116429,100850
116451,100855
116491,100848
116591,100890
116720,100963
116766,100973
116778,101023
116792,100988
116912,101028
116977,101075
117016,101059
117033,101079
116985,101070
117052,101084
117106,101099
117103,101138
117094,101081
117036,101066
117046,101055
117099,101107
117054,101089
117051,101071
116993,101036
117038,101079
117031,101120
117044,101067
117017,101084
116946,101041
117008,101078
117007,101106
116970,101075
116983,101060
116969,101017
116990,101038
117033,101049
117064,101059
117033,101064
117022,101066
117095,101119
117132,101141
117163,101127
117140,101109
117109,101086
117252,101170
117285,101218
117303,101196
117315,101181
117313,101180
117387,101240
117442,101264
117493,101265
117458,101260
117480,101231
117614,101294
117637,101308
117636,101298
117682,101338
117711,101331
117786,101379
117834,101418
117804,101418
117833,101384
117881,101382
117948,101443
117991,101467
118050,101498
118061,101478
118040,101457
118148,101523
118168,101527
118228,101557
118221,101551
118243,101518
118287,101597
118349,101657
118380,101628
118360,101610
118410,101560
118460,101625
118500,101708
118497,101656
118503,101661
118461,101630
118526,101699
118543,101709
118570,101681
118544,101690
118566,101672
118632,101740
118645,101754
118672,101750
118669,101721
118657,101715
118714,101750
118752,101780
118758,101756
118725,101751
118712,101733
118782,101777
118781,101789
118809,101793
118749,101759
118776,101768
118839,101829
118859,101852
118872,101837
118860,101769
118805,101798
118882,101832
118907,101854
118925,101815
118889,101798
118893,101816
118957,101855
118943,101868
118981,101829
118935,101805
118989,101824
119021,101882
119067,101881
119071,101911
119071,101858
119050,101863
119131,101913
119148,101941
119179,101969
119131,101924
119186,101935
119234,101973
119259,102018
119242,101986
119238,101965
119252,101970
119341,102003
119364,102017
119343,102022
119346,101982
119356,102014
119463,102066
119489,102107
119472,102075
119432,102024
119454,102041
119502,102067
119513,102092
119490,102063
119373,101995
119303,101981
119188,101964
118954,101832
118635,101715
118276,101506
117916,101393
117637,101278
117256,101130
116890,100980
116568,100832
116332,100772
116143,100713
115936,100640
115759,100604
115578,100479
115450,100425
115418,100441
115326,100390
115266,100373
115195,100311
115143,100309
115161,100330
115147,100338
115148,100336
115097,100277
115173,100323
115188,100368
115220,100350
115243,100376
115213,100349
115298,100394
115377,100424
115390,100422
115465,100456
115454,100458
115525,100496
115598,100539
115652,100539
115668,100574
115676,100531
115796,100616
115865,100651
115896,100647
115914,100663
115904,100646
115972,100680
116045,100712
116029,100722
116100,100721
116079,100673
116137,100716
116181,100768
116207,100773
116212,100778
116235,100770
116308,100785
116385,100845
116440,100871
116472,100864
116479,100848
116613,100945
116663,100956
116727,100994
116793,100989
116775,100983
116887,101027
116919,101090
116910,101076
116934,101045
116940,101043
116999,101037
117015,101055
117017,101104
116965,101048
116958,101039
116979,101067
116972,101071
116967,101060
116910,101032
116877,100996
116902,101027
116907,101061
116856,101004
116825,101021
116795,100968
116838,101028
116863,100981
116821,100990
116794,100997
116799,100956
116805,101016
116820,101037
116820,100997
116793,101002
116792,100970
116856,101013
116880,100999
116886,101002
116903,101015
116875,101011
116959,101062
116961,101104
116967,101080
116983,101090
116991,101079
117096,101120
117105,101132
117113,101141
117121,101151
117114,101130
117220,101203
117236,101189
117254,101201
117265,101178
117303,101177
117369,101264
117416,101278
117431,101273
117464,101277
117451,101265
117547,101317
117575,101321
117608,101315
117604,101313
117626,101328
117704,101380
117706,101394
117744,101406
117762,101368
117754,101375
117897,101437
117906,101448
117901,101442
117897,101446
117910,101430
118035,101509
118052,101486
118038,101502
118047,101479
118034,101483
118105,101568
118201,101564
118149,101581
118156,101524
118193,101565
118242,101588
118247,101614
118288,101617
118270,101570
118298,101594
118330,101648
118404,101666
118386,101620
118354,101616
118412,101646
118489,101663
118474,101688
118486,101673
118458,101652
118449,101660
118500,101712
118531,101712
118547,101672
118487,101663
118531,101702
118584,101737
118570,101723
118578,101733
118556,101707
118582,101737
118616,101744
118639,101777
118639,101753
118602,101703
118660,101748
118682,101773
118705,101796
118719,101768
118674,101749
118718,101816
118790,101834
118806,101819
118812,101827
118770,101763
118825,101804
118907,101864
118937,101880
118932,101874
118906,101832
118989,101855
119065,101929
119085,101911
119059,101931
119072,101874
119089,101911
119159,101991
119140,101971
119149,101958
119059,101882
119056,101905
118972,101865
118805,101808
118551,101673
118251,101549
117967,101444
117678,101322
117340,101224
117014,101057
116648,100879
116385,100840
116210,100750
116030,100696
115792,100596
115629,100495
115569,100491
115465,100453
115389,100419
115314,100384
115198,100335
115205,100338
115212,100364
115199,100346
115138,100352
115075,100277
115173,100347
115206,100377
115195,100369
115259,100372
115207,100323
115283,100396
115355,100400
115408,100420
115435,100454
115424,100450
115530,100489
115607,100531
115651,100546
115726,100550
115683,100540
115830,100607
115903,100665
115927,100664
115975,100674
115945,100648
116060,100724
116094,100748
116106,100742
116143,100729
116173,100709
116251,100794
116329,100816
116340,100838
116362,100825
116336,100836
116453,100908
116543,100907
116570,100909
116601,100908
116623,100883
116733,100987
116832,101006
116915,101051
116913,101070
116945,101041
117076,101084
117153,101155
117154,101161
117169,101140
117181,101101
117285,101200
117277,101204
117219,101182
117235,101155
117180,101139
117230,101150
117205,101174
117200,101152
117134,101131
117087,101087
117118,101123
117096,101100
117068,101082
117042,101072
117005,101053
117013,101098
117040,101114
117044,101072
116981,101034
116927,101051
117017,101104
116988,101074
116981,101071
116998,101072
116993,101050
117020,101076
117085,101112
117083,101096
117048,101080
117087,101111
117187,101145
117164,101148
117185,101168
117206,101149
117223,101137
117254,101205
117350,101240
117361,101212
117362,101191
117391,101215
117458,101278
117528,101287
117531,101297
117537,101264
117542,101288
117652,101326
117652,101354
117710,101361
117714,101351
117707,101341
117813,101428
117826,101433
117876,101417
117854,101428
117905,101430
117978,101490
118020,101503
118041,101484
118046,101466
118073,101494
118169,101566
118192,101522
118205,101563
118142,101512
118197,101533
118268,101598
118299,101609
118320,101598
118308,101594
118366,101607
118400,101632
118444,101688
118461,101680
118434,101618
118480,101649
118506,101705
118515,101735
118562,101712
118503,101664
118605,101716
118665,101770
118661,101703
118639,101736
118629,101725
118699,101746
118726,101780
118730,101787
118728,101759
118708,101738
118762,101808
118839,101826
118824,101814
118828,101810
118791,101742
118810,101805
118877,101841
118881,101834
118855,101813
118870,101802
118918,101838
118927,101867
118964,101867
118932,101831
118902,101810
118974,101868
118982,101882
118981,101869
119004,101874
118987,101864
119055,101862
119049,101914
119096,101936
119076,101926
119087,101860
119121,101920
119170,101951
119214,101954
119206,101966
119163,101931
119268,101991
119323,102004
119277,102028
119348,102019
119294,101979
119379,102011
119465,102074
119456,102095
119492,102085
119449,102052
119542,102113
119624,102124
119570,102119
119620,102146
119567,102066
119566,102090
119536,102099
119446,102043
119222,101929
118916,101776
118672,101715
118349,101568
117992,101401
117571,101236
117219,101085
116924,101015
116642,100905
116420,100823
116216,100706
115970,100611
115862,100601
115784,100590
115686,100533
115565,100462
115427,100413
115451,100427
115403,100426
115377,100423
115358,100398
115287,100369
115384,100437
115393,100464
115418,100427
115446,100447
115405,100422
115490,100493
115522,100490
115587,100539
115616,100522
115665,100526
115763,100613
115826,100626
115842,100609
115879,100634
115946,100647
116048,100703
116119,100729
116179,100780
116203,100777
116232,100772
116326,100811
116380,100837
116388,100831
116414,100801
116434,100834
116523,100907
116576,100939
116583,100911
116610,100932
116604,100937
116709,101006
116791,100997
116781,101003
116832,100996
116882,101022
116970,101059
117050,101113
117087,101122
117112,101127
117188,101147
117311,101207
117323,101235
117379,101225
117362,101226
117384,101205
117456,101265
117456,101266
117489,101263
117383,101195
117421,101220
117449,101255
117399,101247
117396,101261
117360,101194
117312,101183
117344,101215
117343,101210
117286,101211
117229,101171
117206,101144
117273,101198
117221,101176
117187,101162
117155,101096
117130,101124
117143,101154
117200,101156
117182,101125
117136,101088
117137,101114
117184,101137
117191,101145
117192,101163
117183,101123
117185,101150
117271,101224
117275,101191
117287,101204
117259,101187
117284,101218
117403,101264
117416,101248
117397,101228
117410,101233
117464,101275
117527,101329
117548,101295
117540,101324
117524,101278
117577,101315
117629,101386
117686,101396
117700,101350
117675,101338
117721,101358
117769,101403
117774,101409
117806,101435
117780,101376
117833,101406
117892,101456
117915,101453
117944,101453
117918,101431
117958,101456
117994,101500
118027,101501
118017,101521
118000,101448
118040,101514
118100,101544
118067,101520
118115,101514
118082,101489
118141,101550
118157,101600
118156,101562
118155,101555
118138,101540
118191,101572
118257,101606
118281,101592
118244,101584
118242,101562
118288,101627
118317,101628
118303,101667
118315,101660
118287,101590
118419,101677
118418,101666
118485,101660
118422,101671
118434,101630
118468,101679
118524,101691
118557,101682
118568,101698
118508,101679
118568,101718
118639,101750
118619,101736
118627,101717
118607,101700
118694,101746
118722,101787
118712,101761
118701,101768
118731,101731
118781,101786
118825,101806
118821,101837
118836,101786
118805,101754
118902,101860
118889,101887
118953,101852
118983,101856
118934,101822
119057,101877
119099,101908
119084,101922
119085,101924
119110,101889
119147,101950
119208,101964
119274,101986
119264,101980
119262,101955
119363,102020
119410,102050
119403,102045
119425,102039
119401,102012
119503,102080
119518,102066
119507,102078
119421,102009
119304,101943
119170,101927
118984,101834
118687,101701
118328,101543
117886,101380
117616,101283
117270,101171
116915,101050
116618,100907
116380,100785
116241,100774
116070,100722
115911,100615
115781,100577
115663,100517
115629,100490
115568,100527
115498,100485
115430,100419
115366,100407
115436,100469
115426,100438
115406,100446
115364,100425
115369,100382
115472,100493
115526,100527
115546,100499
115498,100483
115564,100511
115664,100545
115769,100597
115795,100579
115758,100568
115832,100602
115961,100679
116004,100703
116058,100710
116095,100692
116111,100706
116237,100784
116284,100820
116336,100818
116374,100786
116379,100829
116491,100897
116487,100890
116549,100896
116529,100900
116589,100896
116677,100952
116701,100983
116728,100951
116681,100955
116759,100939
116905,101056
116942,101067
116977,101056
116967,101048
117055,101085
117170,101168
117220,101199
117258,101194
117238,101160
117314,101216
117379,101255
117419,101225
117397,101247
117403,101210
117382,101216
117379,101237
117387,101249
117331,101214
117305,101165
117281,101182
117296,101186
117289,101192
117229,101186
117158,101145
117149,101113
117188,101120
117126,101146
117115,101093
117062,101089
117027,101079
117094,101104
117076,101111
117014,101069
117018,101079
116995,101081
117053,101103
117046,101116
117053,101095
117024,101065
117071,101088
117106,101138
117079,101125
117127,101128
117099,101102
117097,101160
117178,101194
117194,101165
117217,101160
117214,101149
117310,101212
117321,101247
117332,101222
117381,101231
117372,101219
117461,101251
117519,101297
117514,101305
117546,101302
117560,101270
117583,101304
117664,101374
117684,101366
117662,101333
117657,101337
117715,101340
117794,101411
117843,101440
117837,101407
117827,101390
117869,101412
117946,101475
117955,101459
117978,101428
117974,101428
117998,101494
118064,101533
118097,101517
118124,101503
118088,101497
118127,101538
118197,101565
118197,101576
118194,101550
118189,101531
118261,101595
118318,101600
118312,101619
118339,101610
118319,101577
118355,101650
118429,101661
118409,101656
118399,101634
118400,101642
118459,101647
118456,101675
118501,101682
118474,101658
118439,101639
118526,101704
118578,101731
118541,101702
118544,101684
118508,101687
118622,101712
118599,101741
118586,101705
118593,101697
118552,101678
118608,101720
118632,101713
118629,101716
118568,101728
118598,101733
118666,101742
118647,101745
118657,101749
118635,101744
118600,101685
118682,101761
118687,101787
118721,101775
118693,101731
118669,101733
118734,101774
118777,101772
118800,101793
118767,101777
118738,101766
118862,101837
118847,101813
118900,101826
118866,101811
118890,101832
118971,101900
118973,101906
118967,101904
118967,101881
119001,101859
119043,101907
119056,101912
119001,101887
118983,101837
118890,101781
118806,101802
118602,101709
118382,101626
118021,101448
117698,101334
117446,101238
117124,101113
116791,100991
116483,100855
116257,100774
116143,100744
115992,100674
115820,100626
115678,100507
115558,100462
115537,100477
115445,100484
115357,100439
115298,100368
115223,100397
115287,100393
115202,100372
115208,100378
115150,100314
115149,100342
115236,100384
115249,100411
115311,100385
115251,100392
115301,100426
115425,100465
115438,100489
115504,100526
115507,100520
115578,100477
115672,100567
115708,100602
115773,100609
115742,100554
115865,100609
115918,100674
115953,100705
116008,100734
116016,100667
116067,100726
116149,100766
116194,100778
116211,100780
116229,100759
116259,100808
116326,100802
116355,100829
116370,100829
116394,100845
116461,100865
116520,100911
116596,100904
116625,100922
116634,100927
116754,100992
116875,101033
116845,101033
116901,101055
116908,101038
117024,101078
117063,101128
117117,101132
117141,101132
117071,101074
117145,101150
117181,101148
117155,101134
117121,101111
117087,101056
117123,101115
117135,101107
117079,101129
117062,101101
116988,101046
116999,101058
116994,101102
116985,101077
116914,101061
116876,100966
116880,101038
116939,101035
116875,101070
116859,101017
116800,100952
116836,101005
116893,101037
116842,101017
116860,101015
116844,100973
116906,101010
116945,101056
116948,101016
116945,101045
116970,100992
116994,101053
117056,101102
117052,101101
117071,101112
117080,101051
117176,101125
117224,101139
117260,101186
117262,101177
117246,101131
117315,101204
117372,101261
117408,101264
117412,101232
117432,101211
117493,101232
117538,101311
117563,101279
117575,101285
117556,101252
117675,101346
117691,101353
117745,101397
117800,101366
117725,101340
117821,101392
117896,101457
117917,101442
117932,101408
117893,101390
118039,101458
117999,101470
118034,101466
118043,101459
118062,101466
118156,101511
118181,101544
118227,101518
118191,101514
118201,101502
118238,101573
118306,101576
118337,101587
118293,101559
118309,101551
118386,101593
118392,101643
118428,101642
118450,101587
118360,101618
118452,101672
118498,101670
118530,101653
118485,101634
118505,101620
118556,101702
118570,101697
118577,101687
118577,101658
118575,101656
118622,101678
118615,101724
118649,101690
118629,101694
118590,101692
118669,101744
118692,101739
118645,101749
118642,101706
118649,101691
118720,101767
118708,101738
118719,101762
118692,101720
118720,101721
118774,101738
118747,101750
118755,101728
118782,101729
118785,101739
118813,101790
118855,101813
118881,101821
118884,101773
118836,101776
118910,101827
118951,101828
118943,101813
118953,101814
118943,101836
119043,101860
119074,101875
119077,101893
119033,101850
119040,101849
119101,101891
119110,101898
119052,101883
119006,101835
118894,101802
118818,101774
118599,101637
118301,101544
117975,101380
117636,101255
117310,101171
117026,101032
116710,100934
116428,100816
116227,100731
116056,100678
115880,100626
115748,100565
115621,100499
115524,100435
115460,100475
115400,100412
115354,100388
115250,100334
115260,100357
115220,100360
115239,100393
115217,100356
115189,100329
115234,100335
115280,100375
115312,100372
115322,100378
115336,100373
115419,100406
115478,100466
115512,100490
115539,100495
115548,100474
115607,100534
115717,100580
115775,100580
115792,100601
115823,100594
115869,100633
115979,100686
116009,100679
116074,100703
116079,100673
116157,100726
116255,100786
116259,100791
116311,100797
116255,100747
116366,100783
116403,100850
116486,100832
116463,100831
116458,100846
116535,100876
116633,100929
116678,100948
116709,100932
116700,100924
116851,100991
116933,101034
116968,101049
117018,101057
117064,101060
117120,101091
117199,101151
117188,101164
117218,101171
117181,101102
117218,101145
117294,101171
117256,101154
117219,101121
117180,101091
117162,101114
117194,101163
117173,101127
117131,101088
117056,101042
117025,101057
117067,101085
116974,101053
116953,101008
116929,100981
116958,101012
116928,101018
116886,101015
116891,100989
116859,100931
116913,101034
116913,101029
116930,100998
116904,101006
116897,100961
116896,101014
116985,101059
116968,101042
116966,101042
116984,101017
117058,101075
117096,101084
117104,101068
117081,101056
117096,101049
117161,101118
117249,101147
117291,101130
117267,101142
117273,101135
117380,101193
117392,101243
117390,101190
117431,101214
117436,101200
117520,101237
117586,101294
117597,101281
117585,101272
117618,101246
117678,101323
117750,101368
117781,101356
117751,101334
117772,101298
117877,101409
117907,101392
117934,101413
117944,101409
117937,101368
117984,101440
118070,101489
118076,101495
118071,101433
118094,101435
118155,101511
118194,101543
118208,101507
118219,101490
118219,101482
118306,101547
118280,101578
118312,101538
118341,101525
118328,101551
118394,101604
118422,101621
118460,101611
118431,101620
118480,101608
118529,101643
118533,101659
118510,101643
118513,101645
118554,101610
118590,101668
118591,101689
118603,101668
118615,101659
118564,101647
118664,101689
118662,101698
118680,101678
118654,101670
118666,101659
118682,101712
118729,101715
118710,101732
118678,101674
118692,101688
118744,101730
118759,101740
118738,101722
118727,101704
118744,101678
118784,101780
118778,101772
118791,101718
118813,101707
118770,101727
118856,101779
118893,101807
118886,101781
118841,101748
118858,101778
118956,101826
118943,101828
118929,101814
118958,101795
118945,101804
119015,101858
119047,101876
119057,101870
119038,101817
119049,101845
119143,101888
119144,101912
119114,101889
119097,101842
119117,101868
119106,101895
119018,101832
118818,101779
118611,101608
118356,101535
118072,101434
117793,101306
117424,101119
117069,100985
116729,100911
116529,100851
116278,100741
116051,100679
115895,100541
115754,100522
115682,100509
115544,100412
115459,100394
115370,100339
115329,100371
115291,100390
115276,100355
115195,100332
115162,100273
115195,100313
115229,100345
115239,100365
115229,100302
115220,100298
115278,100363
115363,100393
115370,100378
115400,100358
115425,100391
115491,100438
115592,100461
115635,100494
115688,100529
115643,100487
115770,100539
115845,100600
115923,100629
115910,100645
115950,100595
116023,100652
116105,100700
116156,100702
116164,100713
116174,100691
116263,100752
116313,100793
116347,100744
116324,100785
116395,100781
116436,100821
116497,100812
116516,100849
116548,100853
116532,100811
116655,100876
116751,100927
116794,100960
116850,100965
116846,100959
116942,101044
117022,101053
117075,101077
117088,101061
117082,101059
117169,101100
117178,101125
117194,101087
117120,101074
117096,101043
117182,101110
117170,101089
117121,101075
117069,101030
116997,100995
117038,101020
117064,101036
117011,101014
116971,100994
116913,100946
116912,100981
116916,100999
116865,100978
116843,100937
116842,100910
116846,100973
116869,100986
116866,100962
116819,100963
116811,100894
116866,100964
116887,100960
116885,100996
116877,100966
116886,100938
116959,101021
117004,101022
117027,101039
117040,101002
117015,101018
117101,101080
117119,101096
117191,101084
117160,101093
117187,101091
117268,101153
117284,101172
117357,101167
117344,101144
117377,101150
117467,101255
117491,101232
117535,101250
117530,101217
117572,101249
117639,101262
117723,101298
117717,101318
117764,101286
117735,101305
117861,101356
117896,101395
117911,101375
117937,101381
117956,101377
118069,101443
118067,101449
118098,101423
118104,101403
118126,101426
118190,101492
118265,101500
118253,101531
118210,101512
118263,101528
118340,101556
118383,101566
118413,101553
118366,101534
118425,101579
118517,101603
118541,101606
118520,101627
118501,101582
118524,101600
118624,101666
118630,101653
118617,101672
118627,101640
118653,101649
118719,101711
118718,101691
118756,101698
118737,101671
118768,101702
118825,101757
118829,101744
118802,101741
118782,101710
118835,101717
118882,101781
118919,101779
118888,101752
118850,101724
118891,101751
118973,101778
118946,101796
118958,101785
118933,101731
118985,101789
118994,101829
119038,101807
119031,101799
118989,101798
119038,101805
119092,101850
119109,101845
119093,101819
119072,101787
119138,101862
119160,101862
119173,101889
119161,101868
119154,101826
119183,101870
119257,101916
119278,101927
119252,101920
119250,101849
119308,101914
119360,101966
119337,101949
119345,101940
119331,101901
119353,101915
119407,101948
119377,101938
119331,101931
119236,101898
119247,101901
119136,101832
118925,101739
118642,101609
118290,101441
117996,101346
117667,101246
117259,101088
116896,100931
116568,100771
116311,100714
116133,100676
115912,100577
115725,100510
115562,100401
115483,100388
115383,100369
115315,100315
115210,100266
115086,100246
115116,100230
115064,100217
115032,100208
114974,100183
114953,100158
114994,100208
115014,100223
115020,100201
115021,100203
115069,100202
115126,100254
115162,100295
115180,100338
115260,100278
115277,100294
115330,100375
115400,100405
115463,100412
115498,100421
115535,100405
115611,100460
115689,100511
115715,100508
115749,100495
115773,100493
115856,100574
115889,100606
115947,100605
115955,100584
115954,100566
116001,100610
116065,100665
116110,100639
116092,100622
116111,100631
116209,100685
116287,100731
116274,100718
116284,100724
116317,100724
116425,100747
116487,100824
116547,100840
116556,100834
116572,100815
116666,100897
116731,100888
116700,100897
116668,100870
116656,100876
116689,100887
116714,100885
116694,100900
116617,100833
116538,100810
116571,100833
116523,100836
116503,100797
116428,100777
116356,100723
116389,100776
116387,100749
116303,100701
116265,100691
116246,100678
116237,100730
116223,100720
116206,100690
116112,100627
116153,100625
116146,100697
116164,100682
116133,100651
116095,100648
116091,100624
116172,100685
116163,100678
116179,100704
116183,100661
116210,100685
116259,100726
116276,100742
116270,100720
116285,100722
116319,100744
116380,100758
116409,100777
116441,100785
116438,100792
116461,100797
116550,100855
116563,100878
116619,100862
116586,100840
116625,100861
116697,100906
116737,100934
116764,100941
116756,100927
116784,100920
116865,100973
116930,100998
116967,101051
116918,100998
116979,101017
117034,101049
117080,101055
117116,101102
117101,101057
117143,101077
117227,101122
117261,101143
117248,101121
117259,101142
117296,101141
117398,101190
117382,101179
117404,101214
117405,101197
117473,101188
117516,101251
117552,101252
117528,101250
117556,101223
117605,101251
117675,101306
117716,101318
117736,101292
117695,101261
117748,101329
117824,101383
117780,101371
117858,101361
117826,101347
117869,101357
117911,101411
117948,101378
117931,101393
117911,101389
117944,101397
118031,101426
118005,101459
117990,101426
117964,101383
118036,101437
118053,101471
118093,101457
118066,101441
118048,101429
118121,101469
118114,101489
118133,101473
118124,101499
118106,101430
118172,101475
118202,101531
118205,101544
118232,101523
118208,101479
118288,101523
118322,101564
118355,101573
118351,101585
118313,101538
118422,101587
118451,101599
118503,101630
118495,101614
118482,101609
118581,101633
118612,101678
118657,101695
118687,101685
118614,101656
118729,101703
118779,101743
118725,101721
118692,101676
118602,101607
118499,101584
118359,101574
118136,101474
117871,101318
117511,101150
117290,101101
117008,101000
116731,100899
116454,100768
116189,100649
116039,100617
115922,100541
115784,100489
115626,100438
115500,100379
115473,100402
115408,100386
115345,100343
115284,100322
115270,100273
115303,100337
115316,100344
115272,100321
115279,100306
115269,100267
115360,100349
115367,100373
115433,100397
115424,100406
115481,100409
115569,100431
115625,100482
115686,100476
115725,100507
115768,100489
115866,100590
115974,100598
116026,100613
116027,100578
116067,100638
116227,100685
116307,100748
116358,100745
116325,100728
116395,100746
116499,100815
116528,100826
116587,100831
116595,100837
116634,100838
116757,100883
116789,100923
116858,100944
116863,100931
116900,100914
116979,101006
117076,101049
117142,101078
117152,101017
117223,101059
117331,101124
117382,101160
117415,101197
117456,101166
117503,101159
117546,101254
117567,101230
117593,101259
117583,101185
117507,101194
117569,101250
117559,101206
117527,101196
117467,101146
117392,101124
117453,101185
117390,101131
117352,101083
117288,101058
117224,101075
117266,101120
117218,101078
117193,101040
117121,101021
117124,101000
117127,101043
117065,101044
117048,101002
117017,100959
117021,100985
117041,101000
117055,101012
117033,100959
116984,100964
117029,100995
117074,101016
117052,101045
117064,101014
117046,100963
117039,100979
117131,101055
117129,101038
117129,101038
117075,101023
117134,101018
117212,101090
117244,101075
117218,101088
117221,101074
117259,101059
117322,101134
117322,101124
117342,101148
117316,101086
117353,101139
117428,101178
117428,101177
117471,101197
117431,101117
117485,101182
117540,101238
117548,101211
117575,101207
117562,101193
117590,101217
117683,101291
117656,101276
117674,101282
117649,101199
117733,101280
117745,101253
117766,101312
117762,101282
117763,101260
117797,101286
117838,101330
117860,101358
117896,101348
117851,101319
117904,101330
117944,101389
117932,101393
117951,101370
117939,101329
117989,101376
118023,101399
118023,101399
118039,101390
117974,101332
117991,101420
118122,101434
118097,101417
118090,101425
118073,101382
118085,101395
118147,101459
118146,101465
118128,101425
118095,101393
118167,101442
118196,101461
118202,101445
118213,101457
118125,101409
118202,101450
118262,101509
118283,101491
118259,101468
118239,101444
118313,101488
118304,101515
118366,101534
118382,101530
118331,101480
118419,101573
118463,101533
118464,101526
118464,101551
118414,101507
118386,101542
118389,101516
118279,101440
118107,101368
117849,101247
117640,101192
117412,101108
117118,100986
116802,100823
116449,100699
116276,100673
116093,100602
115862,100526
115655,100430
115494,100348
115456,100328
115304,100308
115220,100275
115135,100213
115022,100141
115012,100171
114958,100188
114989,100191
114919,100132
114889,100070
114912,100146
114940,100155
114962,100149
114951,100176
114960,100119
114992,100196
115054,100211
115097,100224
115147,100223
115134,100223
115281,100297
115309,100328
115337,100344
115391,100333
115423,100341
115508,100392
115615,100477
115662,100452
115701,100452
115679,100456
115761,100537
115902,100548
115941,100541
115937,100562
115945,100552
116078,100650
116090,100672
116130,100690
116162,100653
116153,100642
116292,100716
116351,100755
116370,100748
116420,100748
116465,100779
116552,100828
116665,100877
116662,100906
116718,100884
116793,100876
116848,100954
116946,100989
116973,100971
116963,100957
117023,100979
117074,101026
117097,101002
117079,101054
116998,100954
117007,100972
117052,101015
117020,101021
116978,101015
116934,100952
116930,100951
116939,100956
116920,100992
116908,100966
116830,100903
116836,100893
116846,100930
116857,100921
116810,100932
116748,100892
116786,100881
116831,100914
116824,100933
116794,100928
116806,100874
116807,100863
116874,100933
116917,100935
116891,100961
116920,100924
116942,100926
117001,100987
117055,101003
117052,101004
117070,100992
117106,101027
117178,101070
117217,101087
117253,101095
117276,101052
117339,101098
117388,101153
117428,101167
117426,101184
117457,101132
117491,101172
117569,101239
117604,101226
117616,101237
117656,101205
117730,101254
117751,101310
117829,101321
117881,101296
117840,101294
117940,101329
117976,101358
118004,101360
118010,101373
118046,101386
118115,101404
118134,101443
118174,101446
118220,101459
118187,101422
118252,101471
118306,101501
118356,101495
118384,101502
118349,101505
118384,101519
118429,101562
118459,101569
118468,101549
118470,101543
118486,101610
118559,101617
118569,101598
118563,101595
118564,101577
118630,101623
118699,101657
118647,101650
118627,101638
118661,101622
118722,101653
118729,101665
118763,101703
118760,101694
118725,101633
118784,101689
118814,101697
118823,101693
118818,101693
118762,101662
118868,101745
118873,101759
118888,101739
118888,101726
118873,101694
118934,101788
118999,101761
118953,101770
118997,101755
118935,101758
119011,101772
119065,101839
119077,101827
119116,101805
119051,101841
119140,101856
119129,101851
119221,101861
119144,101847
119163,101808
119141,101814
119077,101804
118987,101727
118815,101661
118481,101494
118296,101473
117979,101329
117610,101181
117275,101051
116942,100878
116658,100832
116474,100724
116258,100648
116002,100564
115831,100474
115763,100476
115633,100440
115572,100387
115446,100301
115350,100307
115380,100319
115309,100303
115283,100292
115271,100255
115181,100226
119116,101805
115266,100278
115294,100286
115273,100279
115287,100249
115348,100338
115419,100363
115425,100357
115442,100331
115445,100334
115526,100418
115607,100413
115613,100443
115662,100402
115670,100447
115775,100516
115824,100517
115838,100526
115891,100505
115863,100512
115996,100615
116049,100597
116052,100610
116030,100599
116075,100574
116143,100658
116164,100660
116188,100659
116152,100655
116172,100640
116247,100671
116312,100728
116316,100704
116308,100695
116368,100736
116470,100757
116499,100815
116536,100808
116562,100807
116640,100840
116753,100874
116777,100897
116801,100901
116823,100860
116831,100882
116924,100973
116913,100936
116929,100946
116880,100876
116846,100893
116904,100937
116861,100914
116862,100911
116792,100862
116782,100859
116829,100887
116762,100908
116750,100854
116682,100835
116710,100824
116727,100861
116688,100851
116721,100841
116651,100790
116614,100819
116721,100862
116639,100842
116669,100841
116637,100756
116615,100807
116734,100866
116699,100844
116692,100829
116695,100811
116725,100858
116800,100878
116804,100877
116817,100851
116843,100867
116841,100907
116956,100971
116939,100920
116980,100961
116998,100916
117007,100979
117065,100971
117159,101001
117116,101028
117158,101023
117196,101028
117247,101057
117298,101095
117329,101122
117319,101061
117365,101073
117430,101139
117474,101141
117480,101117
117475,101111
117491,101170
117603,101215
117586,101195
117605,101174
117583,101161
117645,101199
117717,101264
117744,101251
117722,101246
117732,101228
117768,101258
117790,101253
117856,101312
117819,101251
117779,101221
117870,101323
117880,101319
117922,101291
117920,101348
117896,101293
117927,101326
118000,101369
117983,101351
118008,101340
117973,101304
118024,101363
118067,101416
118048,101400
118041,101403
118030,101350
118113,101426
118152,101441
118171,101448
118148,101401
118138,101351
118194,101420
118257,101471
118228,101482
118238,101474
118233,101429
118340,101482
118366,101520
118361,101482
118338,101504
118306,101479
118396,101521
118389,101529
118337,101502
118263,101480
118088,101403
117952,101336
117751,101246
117528,101118
117225,100979
116913,100862
116687,100807
116475,100721
116221,100639
115977,100538
115791,100434
115655,100454
115565,100421
115461,100364
115328,100278
115214,100240
115198,100227
115199,100253
115120,100207
115061,100197
115030,100167
115075,100205
115115,100205
115063,100195
115065,100170
115096,100177
115157,100241
115166,100238
115246,100238
115242,100212
115259,100222
115323,100301
115399,100337
115452,100365
115457,100322
115509,100365
115609,100426
115676,100439
115686,100443
115732,100465
115734,100456
115857,100528
115914,100520
115885,100550
115942,100548
115934,100533
116033,100592
116111,100604
116077,100603
116101,100576
116090,100607
116197,100664
116231,100649
116220,100677
116252,100648
116246,100656
116354,100707
116411,100758
116462,100758
116435,100735
116492,100736
116618,100806
116676,100823
116746,100886
116742,100878
116750,100864
116831,100909
116882,100930
116906,100895
116896,100870
116861,100893
116899,100935
116935,100941
116949,100905
116833,100872
116854,100891
116870,100920
116861,100915
116875,100866
116819,100823
116795,100841
116790,100897
116805,100877
116783,100884
116747,100841
116746,100817
116788,100868
116779,100869
116771,100867
116737,100792
116738,100846
116806,100935
116842,100897
116829,100882
116781,100853
116842,100858
116946,100906
116944,100940
116930,100946
116900,100905
116978,100947
117083,100967
117124,101014
117110,100988
117075,100984
117186,101032
117266,101065
117272,101057
117323,101065
117311,101040
117380,101089
117415,101138
117449,101110
117460,101140
117472,101136
117563,101150
117582,101217
117624,101202
117697,101210
117679,101186
117717,101222
117791,101286
117814,101277
117858,101288
117863,101263
117865,101297
117926,101326
117982,101364
118019,101334
117983,101291
118014,101353
118092,101385
118112,101426
118106,101375
118076,101353
118118,101390
118187,101413
118240,101413
118217,101434
118187,101404
118270,101414
118306,101478
118305,101484
118341,101469
118314,101444
118383,101472
118399,101513
118448,101524
118432,101516
118415,101491
118504,101543
118541,101563
118518,101552
118556,101560
118552,101539
118586,101552
118625,101624
118666,101604
118645,101585
118641,101562
118661,101614
118738,101628
118725,101681
118776,101622
118706,101599
118771,101676
118829,101666
118773,101664
118741,101666
118682,101620
118699,101617
118600,101580
118418,101522
118211,101402
117897,101243
117617,101127
117341,101056
116981,100921
116672,100771
