ir,red
104926,96745
104947,96753
104977,96748
104996,96751
105037,96779
105050,96771
105090,96772
105104,96796
105139,96826
105191,96838
105219,96846
105225,96854
105274,96861
105271,96890
105310,96898
105314,96889
105369,96880
105374,96913
105441,96945
105445,96953
105430,96954
105494,96966
105490,96963
105492,96947
105471,96954
105485,96973
105519,96974
105503,96961
105540,96984
105530,96971
105553,96941
105533,96970
105550,96964
105573,96990
105575,96988
105595,97001
105628,97013
105633,97017
105648,96998
105642,97006
105676,97018
105680,97026
105701,97026
105737,97036
105727,97038
105769,97060
105755,97064
105807,97080
105799,97078
105836,97096
105877,97113
105913,97098
105930,97129
105928,97133
105998,97150
106002,97149
106024,97154
106063,97175
106091,97189
106164,97198
106162,97202
106206,97242
106265,97237
106276,97263
106317,97310
106362,97270
106371,97298
106412,97304
106417,97343
106485,97343
106486,97340
106538,97366
106549,97388
106564,97432
106595,97381
106672,97412
106666,97442
106707,97435
106704,97447
106754,97462
106802,97484
106820,97468
106815,97492
106852,97494
106883,97506
106903,97519
106920,97520
106957,97528
106973,97559
106996,97562
106993,97573
107054,97582
107080,97583
107103,97579
107113,97623
107144,97603
107182,97638
107195,97658
107200,97654
107291,97670
107301,97704
107325,97679
107375,97703
107358,97706
107412,97714
107407,97722
107371,97703
107363,97700
107304,97661
107241,97652
107139,97605
107024,97550
106954,97515
106813,97470
106695,97403
106568,97310
106454,97283
106334,97249
106181,97210
106079,97138
105984,97096
105839,97042
105732,96987
105638,96928
105530,96894
105420,96868
105339,96847
105271,96826
105229,96788
105151,96778
105115,96756
105088,96731
105000,96729
105004,96711
104988,96733
104974,96719
104981,96700
104987,96731
104965,96720
104981,96748
104980,96761
104972,96756
105039,96769
105063,96766
105072,96777
105110,96798
105123,96806
105149,96813
105210,96844
105201,96849
105244,96858
105298,96876
105313,96875
105336,96912
105353,96923
105390,96918
105388,96949
105472,96943
105464,96962
105501,96983
105559,96982
105595,97010
105631,97036
105688,97030
105748,97064
105796,97106
105827,97130
105850,97118
105912,97144
105950,97156
105988,97191
106034,97202
106089,97211
106084,97240
106095,97222
106146,97238
106174,97226
106175,97254
106190,97253
106219,97262
106219,97262
106253,97277
106259,97264
106242,97282
106281,97292
106288,97300
106270,97273
106277,97299
106296,97307
106287,97292
106273,97286
106286,97301
106308,97275
106327,97302
106286,97290
106305,97294
106324,97299
106313,97294
106334,97295
106331,97329
106341,97306
106381,97322
106350,97337
106389,97331
106417,97351
106415,97343
106456,97340
106450,97357
106461,97382
106461,97381
106527,97383
106504,97387
106571,97387
106596,97401
106608,97410
106613,97419
106636,97473
106679,97449
106683,97473
106733,97509
106767,97489
106795,97492
106783,97498
106825,97513
106818,97530
106857,97515
106913,97552
106919,97563
106940,97587
106991,97569
106960,97584
107006,97597
107024,97591
107009,97601
107091,97638
107099,97622
107097,97629
107112,97613
107127,97646
107134,97646
107157,97645
107147,97651
107185,97653
107218,97680
107179,97640
107236,97684
107234,97690
107255,97689
107209,97675
107254,97697
107271,97678
107266,97706
107269,97703
107266,97706
107288,97696
107308,97714
107337,97714
107333,97717
107347,97705
107342,97739
107364,97744
107397,97754
107375,97732
107384,97757
107426,97773
107431,97759
107467,97781
107489,97804
107513,97792
107516,97811
107540,97829
107530,97823
107617,97847
107612,97821
107613,97842
107664,97860
107692,97871
107674,97849
107684,97864
107687,97861
107669,97847
107632,97825
107574,97822
107523,97790
107435,97735
107322,97709
107216,97641
107111,97600
107014,97557
106897,97506
106776,97462
106645,97402
106527,97363
106393,97293
106252,97238
106107,97211
106015,97136
105930,97118
105859,97042
105731,97020
105656,97006
105588,96977
105518,96947
105450,96906
105406,96926
105369,96897
105336,96888
105328,96870
105284,96876
105285,96880
105308,96880
105240,96878
105278,96838
105314,96908
105318,96891
105356,96913
105352,96907
105409,96929
105399,96937
105459,96963
105451,96958
105523,96978
105532,96977
105557,97006
105599,97009
105638,97028
105682,97064
105692,97062
105718,97069
105759,97072
105791,97084
105795,97108
105853,97134
105872,97120
105933,97160
105960,97181
106018,97178
106045,97195
106086,97236
106105,97228
106198,97249
106224,97293
106271,97290
106334,97322
106359,97309
106386,97334
106413,97344
106475,97372
106462,97377
106498,97385
106503,97406
106546,97400
106517,97415
106568,97411
106569,97420
106583,97411
106582,97434
106616,97422
106599,97415
106613,97416
106607,97400
106598,97397
106595,97414
106613,97433
106623,97388
106619,97452
106617,97450
106610,97402
106587,97421
106623,97457
106622,97415
106627,97429
106649,97432
106645,97421
106651,97415
106661,97415
106634,97422
106670,97445
106683,97466
106708,97455
106736,97471
106744,97469
106780,97491
106744,97476
106807,97502
106853,97511
106840,97525
106866,97537
106894,97524
106868,97529
106970,97552
106945,97587
106998,97581
107004,97587
107023,97588
107059,97605
107095,97629
107102,97657
107157,97637
107166,97638
107199,97663
107235,97679
107257,97698
107265,97723
107302,97717
107326,97739
107359,97726
107387,97750
107407,97766
107473,97761
107476,97807
107513,97806
107543,97820
107576,97819
107592,97828
107633,97841
107644,97847
107689,97877
107734,97894
107747,97905
107757,97903
107814,97911
107785,97943
107800,97942
107854,97943
107899,97947
107911,97968
107957,97971
107948,97960
107981,98004
108010,97994
108044,98047
108081,98029
108096,98020
108127,98067
108146,98050
108162,98058
108152,98078
108214,98110
108245,98123
108282,98095
108292,98102
108315,98133
108327,98140
108378,98158
108383,98169
108425,98164
108434,98177
108484,98190
108472,98208
108502,98214
108535,98242
108559,98241
108557,98237
108586,98251
108551,98248
108575,98219
108534,98233
108510,98178
108449,98171
108376,98151
108280,98089
108179,98040
108073,98016
107994,97940
107830,97913
107740,97859
107630,97828
107533,97770
107393,97713
107322,97655
107221,97651
107082,97615
107016,97557
106933,97515
106835,97486
106779,97444
106692,97429
106636,97413
106579,97404
106492,97380
106499,97337
106453,97344
106407,97307
106411,97341
106367,97329
106379,97322
106375,97333
106375,97313
106384,97335
106363,97345
106410,97339
106421,97343
106447,97381
106481,97368
106476,97371
106499,97375
106535,97381
106531,97414
106562,97433
106594,97436
106640,97445
106662,97453
106688,97476
106725,97475
106740,97493
106766,97509
106781,97518
106835,97537
106866,97551
106905,97577
106932,97574
107003,97613
107036,97585
107053,97615
107093,97636
107096,97661
107159,97670
107188,97696
107230,97689
107267,97701
107237,97708
107313,97719
107359,97765
107365,97742
107347,97736
107372,97764
107371,97752
107404,97770
107406,97758
107433,97735
107442,97760
107396,97760
107425,97752
107422,97756
107447,97754
107410,97752
107432,97745
107421,97747
107420,97768
107378,97758
107413,97765
107402,97770
107401,97760
107393,97770
107417,97748
107409,97759
107385,97761
107424,97743
107393,97742
107415,97766
107419,97741
107449,97775
107443,97767
107467,97759
107444,97777
107461,97781
107468,97783
107472,97801
107502,97795
107523,97812
107522,97804
107553,97812
107582,97796
107596,97838
107572,97845
107622,97844
107664,97837
107668,97865
107703,97849
107704,97871
107686,97888
107739,97882
107726,97902
107784,97912
107797,97918
107850,97939
107839,97934
107861,97927
107889,97968
107904,97958
107919,97976
107937,97968
107958,97968
108003,97985
107967,97993
108002,98006
108042,98019
108064,98031
108020,98034
108096,98014
108116,98033
108108,98037
108139,98049
108171,98060
108151,98093
108220,98065
108226,98070
108271,98088
108244,98085
108263,98109
108296,98124
108308,98146
108345,98115
108322,98129
108359,98162
108367,98151
108424,98164
108406,98183
108461,98193
108491,98217
108489,98186
108505,98201
108556,98235
108562,98235
108607,98240
108596,98263
108625,98273
108645,98259
108665,98274
108682,98287
108663,98322
108690,98303
108695,98290
108691,98294
108654,98259
108607,98225
108549,98221
108481,98190
108381,98116
108296,98102
108190,98045
108124,98008
107980,97986
107907,97930
107808,97878
107699,97846
107608,97808
107500,97791
107421,97744
107290,97697
107236,97654
107144,97626
107071,97582
106977,97544
106913,97520
106867,97512
106794,97495
106759,97457
106713,97455
106710,97462
106685,97442
106670,97450
106651,97448
106665,97440
106622,97439
106666,97432
106659,97457
106653,97470
106691,97468
106695,97461
106735,97503
106734,97509
106785,97510
106802,97512
106814,97515
106867,97546
106895,97554
106926,97576
106936,97564
106980,97604
106995,97599
107031,97580
107034,97637
107094,97617
107113,97644
107119,97653
107156,97676
107158,97682
107200,97682
107245,97700
107280,97726
107306,97737
107360,97760
107392,97773
107439,97787
107476,97804
107487,97822
107544,97866
107563,97858
107569,97842
107628,97840
107666,97890
107680,97884
107662,97897
107699,97907
107718,97900
107732,97914
107732,97930
107749,97916
107755,97918
107752,97908
107768,97905
107752,97909
107763,97888
107747,97909
107747,97898
107762,97888
107721,97908
107725,97883
107731,97879
107726,97909
107727,97881
107709,97887
107718,97865
107740,97900
107710,97875
107707,97864
107723,97857
107723,97897
107719,97887
107742,97898
107739,97896
107754,97924
107761,97909
107784,97919
107766,97892
107809,97921
107802,97923
107828,97930
107823,97959
107877,97948
107872,97962
107924,97994
107927,97988
107980,97978
107991,98005
107998,98017
108029,98032
108047,98035
108086,98043
108091,98042
108104,98054
108125,98078
108176,98093
108166,98083
108204,98107
108196,98101
108235,98117
108267,98133
108254,98107
108274,98139
108331,98138
108321,98158
108354,98168
108360,98179
108396,98190
108408,98189
108419,98205
108471,98208
108471,98208
108458,98186
108524,98215
108548,98207
108564,98231
108560,98233
108588,98253
108609,98262
108632,98247
108667,98256
108659,98298
108684,98294
108716,98291
108736,98303
108741,98298
108761,98316
108805,98316
108777,98332
108803,98342
108826,98374
108828,98376
108854,98372
108914,98397
108910,98411
108897,98379
108946,98373
108954,98417
108971,98425
108988,98426
108969,98425
108976,98420
108969,98400
108935,98389
108903,98409
108853,98387
108781,98356
108721,98277
108626,98223
108495,98193
108432,98161
108348,98093
108218,98051
108144,98016
108015,97979
107940,97933
107840,97911
107729,97872
107674,97830
107544,97803
107497,97770
107420,97735
107360,97691
107265,97705
107225,97643
107194,97633
107068,97614
107085,97617
107046,97607
107024,97594
106996,97602
107002,97619
106970,97597
106967,97594
107002,97594
106967,97584
107010,97595
107026,97622
107026,97613
107038,97638
107065,97636
107070,97633
107111,97653
107112,97662
107153,97670
107144,97673
107204,97682
107230,97701
107199,97694
107232,97745
107251,97762
107261,97764
107318,97765
107382,97762
107373,97758
107400,97781
107460,97795
107485,97809
107535,97848
107548,97858
107596,97842
107627,97875
107662,97907
107717,97907
107764,97940
107788,97941
107796,97957
107836,97959
107889,97963
107861,97990
107895,97988
107935,97996
107941,98017
107936,97987
107942,97994
107987,98026
107971,98023
107979,98005
107968,98001
107993,98015
107965,98018
107985,98017
107989,98026
107963,98025
107983,98012
107984,97990
107958,98025
107988,98008
107988,98000
107980,98032
107971,97977
108005,98006
107974,97999
107965,97998
107982,98025
107993,98020
108000,97997
107989,98000
107999,98001
108016,98037
108018,98062
108054,98065
108055,98064
108021,98048
108076,98051
108093,98040
108104,98057
108089,98097
108144,98107
108163,98072
108191,98106
108188,98107
108220,98115
108251,98129
108259,98123
108286,98138
108302,98151
108328,98176
108327,98162
108389,98171
108404,98207
108406,98208
108463,98188
108441,98193
108475,98238
108462,98242
108520,98225
108541,98244
108574,98249
108606,98270
108619,98263
108650,98281
108699,98284
108708,98298
108697,98320
108713,98316
108749,98326
108763,98343
108780,98358
108815,98361
108823,98350
108858,98382
108872,98387
108876,98382
108903,98395
108905,98399
108909,98402
108957,98396
108985,98437
108991,98434
109022,98419
109052,98448
109018,98443
109089,98480
109098,98461
109108,98478
109163,98501
109182,98490
109186,98489
109200,98517
109194,98538
109221,98530
109243,98536
109259,98541
109292,98563
109297,98550
109291,98572
109311,98560
109301,98550
109273,98545
109236,98515
109206,98514
109159,98490
109060,98439
108992,98407
108902,98352
108821,98332
108729,98280
108602,98242
108500,98204
108408,98139
108321,98121
108208,98090
108127,98043
108016,98015
107937,97952
107874,97908
107804,97890
107712,97905
107657,97851
107591,97836
107527,97796
107511,97781
107464,97802
107405,97757
107384,97764
107375,97738
107374,97734
107352,97739
107317,97747
107356,97730
107352,97744
107348,97766
107347,97777
107385,97758
107398,97774
107388,97775
107429,97773
107448,97796
107462,97776
107514,97832
107514,97821
107523,97856
107582,97862
107588,97858
107632,97861
107647,97883
107662,97907
107718,97922
107770,97941
107776,97955
107825,97948
107864,97973
107890,97990
107915,97999
107948,98017
107987,98005
108043,98054
108064,98077
108122,98078
108128,98090
108204,98103
108204,98121
108249,98126
108277,98138
108265,98167
108293,98174
108352,98168
108336,98179
108357,98179
108357,98175
108368,98195
108384,98176
108383,98209
108376,98164
108403,98211
108407,98192
108398,98204
108397,98192
108380,98210
108396,98170
108411,98179
108404,98169
108410,98153
108385,98169
108406,98180
108394,98188
108370,98197
108382,98189
108411,98150
108419,98186
108412,98186
108436,98199
108434,98226
108423,98195
108447,98211
108450,98210
108478,98206
108496,98230
108502,98239
108506,98251
108525,98249
108575,98256
108551,98267
108594,98272
108608,98281
108607,98297
108616,98302
108679,98299
108661,98319
108686,98326
108698,98346
108723,98309
108710,98349
108774,98331
108820,98372
108795,98379
108807,98359
108852,98394
108849,98409
108908,98395
108916,98408
108929,98429
108933,98422
108960,98453
108979,98456
109023,98439
109030,98473
109047,98494
109073,98490
109077,98481
109114,98504
109133,98498
109148,98513
109160,98543
109216,98540
109186,98527
109242,98538
109266,98548
109299,98562
109261,98589
109324,98592
109342,98602
109340,98609
109377,98576
109396,98624
109409,98632
109428,98623
109467,98633
109457,98634
109467,98655
109489,98663
109549,98708
109567,98697
109593,98714
109591,98676
109606,98699
109659,98697
109658,98713
109672,98741
109664,98705
109690,98752
109725,98737
109690,98739
109672,98728
109675,98725
109614,98698
109551,98686
109500,98688
109401,98628
109325,98572
109257,98522
109150,98495
109075,98456
108937,98406
108848,98376
108784,98320
108668,98298
108587,98250
108517,98214
108420,98194
108341,98171
108252,98114
108190,98080
108129,98074
108042,98030
108012,98032
107965,98001
107913,97991
107845,97952
107841,97932
107767,97946
107763,97926
107743,97936
107735,97928
107704,97933
107724,97908
107697,97909
107712,97932
107735,97906
107720,97914
107735,97944
107767,97950
107762,97943
107793,97952
107830,97982
107852,97995
107850,97976
107884,97991
107891,98022
107915,98008
107937,98029
107972,98040
107962,98046
108018,98009
108016,98065
108054,98085
108074,98064
108122,98096
108133,98127
108162,98128
108224,98135
108243,98155
108289,98182
108324,98175
108341,98201
108359,98212
108399,98216
108444,98226
108472,98225
108498,98251
108515,98265
108528,98272
108543,98258
108557,98289
108562,98288
108580,98281
108589,98278
108587,98267
108605,98272
108552,98294
108607,98302
108587,98310
108598,98280
108601,98271
108590,98295
108567,98282
108587,98288
108581,98285
108573,98307
108599,98265
108562,98270
108573,98255
108557,98273
108576,98283
108574,98291
108595,98264
108615,98260
108586,98281
108619,98282
108613,98284
108598,98291
108628,98311
108669,98298
108685,98292
108699,98286
108693,98341
108712,98351
108741,98357
108735,98352
108766,98374
108776,98355
108814,98380
108813,98362
108832,98382
108850,98406
108880,98426
108912,98442
108944,98445
108947,98460
109000,98419
108992,98465
108998,98475
109042,98473
109091,98510
109052,98512
109096,98505
109118,98510
109140,98537
109181,98549
109171,98542
109188,98572
109230,98576
109277,98587
109284,98606
109304,98601
109321,98595
109336,98594
109362,98617
109360,98617
109401,98625
109410,98649
109425,98665
109466,98669
109485,98688
109527,98699
109547,98675
109550,98678
109572,98692
109574,98703
109590,98727
109621,98730
109621,98738
109684,98719
109693,98732
109714,98763
109707,98780
109726,98774
109774,98800
109777,98786
109795,98839
109849,98798
109843,98827
109874,98837
109876,98844
109896,98842
109940,98866
109925,98861
109962,98858
109971,98869
109965,98873
109990,98887
109986,98895
110000,98877
109996,98875
109938,98859
109903,98864
109818,98795
109784,98795
109700,98742
109575,98718
109532,98666
109421,98650
109309,98583
109239,98542
109151,98510
109047,98480
108970,98411
108817,98384
108779,98372
108693,98352
108630,98281
108550,98258
108470,98226
108400,98211
108337,98198
108304,98147
108212,98134
108166,98111
108150,98077
108113,98105
108075,98081
108027,98072
108019,98053
108009,98058
107983,98051
108002,98073
108005,98050
107967,98025
107998,98049
107974,98063
108004,98064
108011,98066
108027,98089
108057,98087
108048,98077
108070,98085
108107,98107
108132,98117
108120,98105
108127,98118
108160,98123
108182,98143
108142,98148
108221,98144
108224,98158
108224,98158
108242,98166
108287,98189
108315,98196
108336,98213
108333,98224
108412,98226
108438,98245
108480,98269
108487,98267
108519,98290
108536,98300
108579,98290
108591,98326
108614,98313
108643,98332
108632,98314
108647,98335
108680,98347
108718,98340
108731,98349
108683,98352
108672,98325
108724,98361
108713,98366
108702,98350
108701,98359
108698,98332
108699,98330
108701,98332
108717,98357
108703,98318
108684,98322
108702,98347
108693,98335
108704,98351
108661,98344
108696,98332
108680,98327
108700,98340
108709,98323
108701,98332
108723,98317
108718,98349
108743,98338
108749,98339
108718,98386
108733,98344
108776,98368
108785,98369
108780,98375
108794,98371
108821,98405
108823,98390
108840,98414
108883,98378
108876,98437
108903,98420
108910,98415
108923,98434
108962,98472
108972,98475
109026,98450
109021,98482
109035,98470
109060,98495
109081,98505
109108,98512
109137,98504
109140,98525
109187,98516
109168,98534
109221,98567
109220,98573
109259,98583
109262,98589
109283,98589
109286,98597
109326,98586
109356,98639
109359,98649
109381,98614
109375,98649
109408,98635
109422,98647
109446,98657
109495,98675
109477,98686
109486,98695
109525,98704
109547,98701
109560,98700
109566,98731
109572,98714
109616,98735
109625,98736
109697,98762
109697,98784
109688,98796
109706,98763
109697,98767
109745,98773
109760,98796
109767,98813
109748,98824
109780,98823
109846,98809
109870,98847
109868,98849
109891,98860
109915,98828
109924,98867
109938,98858
109957,98875
109976,98873
109991,98882
109998,98899
109998,98896
109998,98895
110008,98883
109986,98861
109967,98882
109890,98862
109826,98795
109750,98773
109667,98738
109596,98676
109487,98658
109372,98621
109269,98575
109206,98525
109096,98506
109015,98459
108899,98424
108836,98370
108731,98343
108633,98308
108522,98257
108476,98216
108382,98211
108314,98162
108231,98133
108199,98097
108145,98077
108075,98073
108006,98042
107978,98060
107923,98016
107945,98017
107907,98035
107861,98011
107907,97999
107882,98006
107886,98026
107868,98042
107855,98006
107877,98025
107916,98020
107888,98025
107918,98026
107924,98023
107951,98039
107953,98057
107969,98052
107985,98065
107994,98058
108010,98064
108038,98084
108025,98076
108073,98100
108074,98102
108044,98118
108099,98110
108177,98143
108182,98149
108178,98146
108240,98155
108235,98179
108314,98206
108354,98207
108372,98238
108406,98249
108430,98245
108461,98270
108491,98282
108537,98282
108527,98286
108536,98318
108571,98325
108572,98290
108590,98325
108586,98325
108620,98325
108598,98305
108593,98312
108604,98353
108603,98314
108594,98296
108582,98334
108609,98327
108611,98298
108590,98303
108591,98301
108591,98327
108594,98300
108609,98291
108550,98300
108572,98302
108575,98306
108578,98301
108588,98283
108583,98326
108578,98287
108603,98324
108580,98312
108621,98305
108607,98337
108618,98327
108609,98307
108661,98324
108669,98346
108695,98308
108713,98340
108714,98349
108723,98344
108732,98371
108732,98388
108752,98367
108779,98404
108798,98366
108825,98368
108850,98386
108828,98405
108869,98416
108898,98437
108874,98412
108938,98458
108958,98456
108991,98475
109003,98469
108993,98497
109037,98514
109065,98493
109052,98510
109090,98508
109117,98519
109119,98557
109130,98551
109173,98524
109177,98550
109215,98564
109219,98567
109261,98580
109251,98592
109262,98604
109256,98621
109287,98597
109334,98633
109356,98628
109354,98642
109403,98626
109387,98652
109417,98667
109436,98659
109449,98682
109446,98685
109488,98695
109477,98671
109504,98693
109539,98683
109571,98700
109579,98711
109597,98712
109621,98760
109632,98727
109648,98743
109670,98737
109682,98753
109636,98776
109698,98768
109750,98796
109758,98799
109770,98796
109796,98791
109811,98828
109805,98826
109869,98835
109882,98845
109873,98857
109888,98868
109886,98855
109899,98862
109899,98868
109845,98858
109842,98833
109791,98826
109738,98800
109658,98759
109545,98705
109485,98700
109374,98607
109265,98573
109175,98525
109059,98485
108978,98441
108883,98408
108776,98387
108660,98319
108560,98293
108485,98237
108355,98212
108279,98160
108188,98122
108134,98101
108033,98090
107979,98037
107912,98040
107870,97990
107788,97974
107769,97985
107732,97964
107672,97930
107660,97955
107658,97946
107616,97927
107614,97929
107614,97933
107597,97943
107594,97920
107626,97930
107644,97963
107625,97941
107644,97947
107674,97960
107665,97953
107692,97959
107678,97949
107699,97957
107690,97967
107732,97989
107751,97988
107768,97980
107791,98000
107802,98021
107835,98024
107821,98028
107880,98028
107900,98052
107923,98045
107942,98060
107985,98097
108033,98075
108042,98107
108070,98131
108157,98157
108147,98172
108194,98143
108211,98192
108210,98190
108235,98192
108234,98189
108262,98186
108285,98194
108285,98205
108288,98200
108303,98212
108291,98199
108311,98202
108290,98207
108302,98170
108315,98209
108311,98201
108277,98191
108284,98200
108276,98180
108273,98186
108263,98166
108253,98199
108212,98195
108262,98198
108264,98183
108243,98179
108244,98189
108258,98189
108240,98183
108250,98168
108251,98183
108269,98193
108282,98191
108270,98202
108290,98194
108280,98208
108294,98191
108330,98213
108340,98214
108336,98236
108398,98254
108387,98215
108427,98226
108436,98253
108448,98253
108468,98259
108479,98274
108486,98312
108530,98313
108530,98305
108574,98300
108603,98327
108620,98335
108627,98335
108672,98354
108676,98358
108722,98371
108734,98380
108736,98390
108752,98378
108786,98394
108819,98392
108811,98411
108851,98419
108897,98454
108897,98460
108928,98471
108936,98433
108955,98487
108984,98484
108992,98489
109036,98514
109035,98492
109058,98508
109089,98471
109077,98539
109115,98534
109126,98551
109171,98560
109175,98565
109188,98572
109212,98553
109206,98562
109242,98596
109263,98602
109309,98601
109304,98614
109316,98631
109338,98596
109354,98640
109378,98643
109429,98636
109428,98659
109440,98666
109461,98663
109492,98704
109512,98703
109522,98712
109557,98709
109565,98694
109590,98709
109600,98741
109621,98723
109637,98745
109675,98768
109678,98777
109710,98772
109701,98761
109724,98785
109727,98788
109730,98790
109707,98791
109691,98763
109630,98735
109587,98734
109495,98678
109414,98650
109295,98621
109215,98564
109084,98545
109029,98456
108885,98431
108803,98367
108671,98316
108562,98297
108459,98242
108377,98200
108236,98148
108157,98107
108039,98086
107978,98021
107865,98003
107810,97979
107728,97940
107667,97912
107579,97903
107531,97895
107516,97849
107457,97846
107416,97803
107385,97837
107362,97822
107348,97800
107348,97783
107340,97822
107343,97807
107344,97810
107362,97803
107382,97814
107371,97834
107409,97834
107396,97848
107401,97843
107399,97851
107430,97853
107431,97874
107467,97883
107455,97885
107504,97900
107512,97909
107539,97919
107538,97929
107604,97951
107606,97937
107610,97918
107649,97921
107692,97960
107708,97982
107761,98029
107791,98028
107839,98042
107858,98074
107890,98103
107943,98079
107981,98099
107986,98137
108015,98123
108048,98157
108080,98127
108078,98169
108101,98141
108097,98166
108115,98164
108118,98159
108092,98156
108107,98161
108120,98162
108117,98149
108107,98158
108094,98158
108087,98133
108105,98176
108089,98158
108113,98163
108065,98147
108102,98139
108067,98138
108060,98134
108079,98124
108088,98151
108063,98144
108071,98147
108066,98157
108052,98160
108084,98193
108087,98130
108100,98157
108110,98157
108096,98168
108105,98166
108141,98208
108153,98198
108148,98201
108158,98190
108217,98198
108236,98185
108250,98218
108234,98248
108275,98223
108283,98242
108323,98271
108338,98269
108341,98289
108370,98329
108406,98321
108426,98338
108418,98293
108482,98308
108498,98336
108497,98360
108535,98357
108564,98379
108573,98384
108618,98380
108600,98398
108651,98414
108682,98416
108695,98433
108707,98451
108704,98427
108759,98455
108810,98460
108812,98478
108830,98495
108851,98457
108870,98505
108869,98491
108902,98502
108912,98508
108925,98527
108944,98557
108971,98535
108986,98545
109009,98553
109005,98555
109030,98554
109042,98563
109065,98569
109101,98595
109102,98600
109121,98591
109169,98588
109155,98624
109141,98622
109182,98642
109213,98619
109229,98628
109231,98644
109259,98660
109273,98678
109288,98671
109323,98676
109312,98692
109354,98668
109354,98677
109387,98704
109427,98718
109419,98714
109425,98722
109449,98729
109475,98731
109464,98754
109530,98757
109507,98763
109527,98756
109522,98775
109523,98739
109509,98762
109466,98752
109393,98682
109351,98663
109267,98649
109210,98611
109093,98561
108973,98540
108901,98494
108775,98433
108677,98377
108530,98346
108412,98288
108288,98239
108184,98204
108059,98128
107948,98109
107818,98029
107740,98008
107632,97959
107533,97940
107434,97898
107360,97885
107288,97852
107248,97820
107206,97799
107157,97802
107116,97804
107056,97754
107051,97765
107008,97773
107023,97757
106974,97771
106997,97761
107010,97765
107029,97777
107014,97767
107022,97801
107045,97768
107052,97813
107079,97793
107113,97808
107112,97824
107136,97825
107158,97852
107159,97851
107195,97856
107209,97856
107235,97879
107225,97908
107240,97896
107320,97908
107330,97931
107345,97926
107395,97942
107410,97967
107445,97990
107458,97986
107538,98000
107565,98034
107636,98043
107650,98067
107676,98050
107717,98103
107720,98083
107782,98106
107788,98145
107807,98125
107801,98132
107824,98143
107854,98153
107804,98118
107860,98146
107829,98137
107864,98134
107877,98150
107816,98122
107849,98153
107840,98139
107810,98142
107832,98123
107808,98141
107773,98128
107801,98113
107786,98115
107799,98111
107787,98132
107778,98105
107802,98110
107770,98129
107791,98131
107812,98118
107811,98142
107831,98119
107846,98148
107828,98131
107843,98144
107859,98153
107873,98179
107894,98093
107894,98140
107945,98166
107919,98178
107963,98186
107978,98190
107980,98197
108052,98225
108043,98265
108029,98263
108072,98229
108113,98253
108118,98235
108153,98278
108181,98277
108195,98262
108229,98283
108265,98298
108304,98333
108290,98337
108336,98316
108355,98351
108387,98384
108408,98397
108432,98398
108436,98403
108450,98396
108514,98427
108535,98426
108560,98459
108584,98444
108615,98463
108608,98486
108628,98503
108699,98470
108689,98496
108733,98499
108749,98515
108784,98531
108804,98553
108828,98541
108834,98573
108850,98586
108884,98552
108909,98577
108919,98596
108953,98597
108940,98604
108979,98622
108994,98603
109014,98644
109012,98635
109059,98604
109044,98643
109070,98647
109095,98658
109100,98661
109151,98655
109143,98684
109160,98675
109180,98710
109221,98686
109213,98707
109266,98720
109256,98751
109291,98734
109312,98754
109329,98783
109345,98756
109387,98756
109399,98773
109406,98760
109420,98788
109426,98791
109463,98793
109451,98837
109459,98829
109430,98811
109463,98794
109436,98785
109401,98751
109370,98768
109309,98709
109189,98696
109103,98658
109052,98632
108936,98566
108802,98531
108712,98476
108582,98426
108465,98385
108333,98340
108252,98273
108100,98241
107967,98194
107866,98162
107772,98089
107627,98054
107561,98016
107474,97985
107363,97972
107267,97898
107212,97886
107153,97867
107087,97819
107053,97835
106992,97797
106942,97815
106939,97771
106961,97801
106937,97781
106914,97787
106916,97809
106928,97797
106926,97828
106934,97822
106966,97815
106957,97802
106994,97849
106999,97840
107047,97837
107082,97875
107089,97870
107087,97870
107112,97878
107105,97913
107140,97895
107206,97931
107193,97904
107206,97938
107258,97951
107257,97971
107286,97964
107318,97958
107401,97985
107395,98004
107457,98030
107460,98054
107536,98057
107569,98087
107602,98079
107657,98130
107668,98122
107714,98118
107735,98169
107735,98161
107792,98194
107809,98179
107829,98188
107857,98192
107868,98200
107875,98186
107901,98209
107911,98204
107868,98211
107896,98200
107890,98212
107914,98219
107897,98236
107902,98229
107897,98233
107907,98238
107912,98219
107926,98223
107926,98215
107930,98220
107950,98224
107950,98234
107962,98256
107973,98237
107991,98258
107995,98260
108024,98259
108026,98265
108081,98273
108065,98296
108081,98293
108085,98271
108110,98294
108135,98306
108171,98340
108163,98327
108203,98362
108237,98350
108277,98399
108323,98400
108339,98397
108340,98421
108375,98417
108391,98410
108415,98427
108434,98432
108500,98449
108502,98468
108522,98495
108562,98491
108593,98512
108588,98514
108649,98535
108685,98528
108725,98550
108718,98561
108762,98573
108777,98586
108815,98578
108824,98603
108872,98625
108890,98639
108927,98628
108939,98641
108970,98647
108972,98644
109030,98677
109061,98708
109038,98703
109097,98691
109118,98728
109132,98745
109155,98734
109171,98750
109194,98745
109201,98734
109221,98758
109220,98758
109246,98764
109272,98782
109309,98796
109324,98784
109290,98790
109366,98813
109366,98826
109369,98798
109402,98815
109436,98838
109456,98820
109436,98841
109506,98852
109480,98841
109514,98849
109569,98883
109563,98892
109570,98907
109597,98909
109615,98903
109629,98931
109671,98938
109669,98941
109700,98947
109739,98943
109738,98963
109778,98971
109773,98992
109821,98992
109825,99004
109859,98998
109865,99013
109904,99008
109873,99017
109909,99026
109867,99009
109856,99012
109816,98983
109784,98976
109690,98933
109555,98866
109511,98846
109404,98795
109282,98762
109168,98709
109039,98656
108900,98596
108785,98544
108686,98503
108581,98468
108414,98410
108331,98368
108202,98325
108068,98286
107971,98205
107873,98203
107818,98148
107691,98147
107633,98096
107581,98071
107480,98069
107471,98033
107431,98030
107364,98009
107364,97997
107373,98029
107321,97984
107331,98020
107348,97999
107319,98002
107327,98009
107357,98008
107340,98009
107382,98004
107417,98036
107395,98044
107423,98023
107438,98053
107465,98075
107477,98084
107500,98088
107564,98109
107525,98116
107568,98132
107598,98150
107634,98126
107633,98139
107648,98151
107684,98164
107715,98164
107744,98209
107783,98217
107833,98233
107871,98246
107931,98268
107966,98286
107999,98325
108024,98310
108052,98351
108098,98358
108143,98337
108146,98359
108183,98373
108185,98370
108185,98376
108208,98365
108237,98365
108196,98401
108210,98374
108223,98387
108219,98388
108214,98378
108213,98372
108190,98367
108225,98393
108193,98398
108186,98374
108162,98362
108174,98358
108188,98376
108167,98348
108170,98367
108174,98354
108148,98366
108145,98357
108139,98367
108173,98362
108160,98380
108156,98366
108176,98379
108188,98359
108192,98382
108153,98411
108206,98381
108241,98400
108219,98399
108247,98432
108288,98437
108305,98390
108339,98420
108337,98436
108370,98485
108387,98442
108393,98501
108430,98483
108457,98501
108495,98525
108496,98508
108522,98513
108528,98504
108589,98548
108561,98539
108628,98543
108643,98583
108674,98567
108708,98598
108719,98600
108709,98606
108774,98621
108776,98620
108823,98643
108829,98643
108866,98653
108860,98652
108936,98702
108931,98696
108949,98678
108974,98689
108968,98708
109018,98730
109021,98739
109054,98718
109061,98745
109098,98737
109114,98739
109143,98740
109121,98750
109172,98787
109153,98767
109209,98786
109213,98826
109239,98804
109233,98804
109256,98808
109281,98821
109284,98811
109302,98825
109327,98812
109364,98856
109345,98862
109370,98855
109381,98860
109413,98848
109396,98869
109442,98872
109453,98894
109454,98876
109506,98923
109506,98915
109557,98924
109548,98938
109584,98930
109609,98942
109616,98948
109641,98970
109657,98969
109700,98972
109691,98993
109718,98989
109725,99004
109769,99020
109789,99023
109788,99033
109758,99015
109799,98998
109819,99023
109801,99007
109748,99013
109745,98997
109676,98954
109628,98919
109514,98891
109410,98868
109327,98811
109206,98783
109089,98694
108968,98671
108850,98634
108685,98555
108581,98544
108459,98462
108339,98428
108196,98375
108070,98295
107955,98290
107869,98242
107743,98176
107657,98146
107526,98116
107461,98063
107431,98077
107382,98031
107297,98022
107276,98009
107237,97979
107207,97991
107189,97993
107169,97983
107157,97971
107179,97966
107155,98018
107165,97985
107176,98004
107221,97982
107216,97996
107210,98011
107259,98003
107283,98014
107291,98050
107276,98047
107337,98058
107349,98073
107372,98073
107425,98086
107425,98100
107455,98104
107473,98117
107507,98124
107528,98141
107554,98146
107587,98152
107590,98158
107657,98215
107682,98212
107749,98233
107782,98237
107809,98273
107873,98271
107898,98284
107922,98312
107987,98305
107987,98331
108043,98350
108062,98368
108076,98376
108108,98371
108099,98390
108115,98389
108091,98367
108111,98380
108149,98390
108123,98392
108090,98360
108118,98368
108117,98393
108102,98349
108112,98375
108088,98327
108081,98364
108048,98349
108040,98354
108042,98353
108044,98321
108017,98321
108030,98327
108032,98341
108053,98346
108034,98332
108038,98346
108052,98351
108078,98351
108083,98356
108065,98387
108080,98341
108108,98368
108113,98379
108116,98368
108162,98389
108147,98390
108180,98418
108200,98390
108241,98427
108228,98428
108268,98433
108278,98435
108306,98459
108313,98443
108352,98459
108400,98460
108394,98503
108426,98502
108435,98521
108470,98538
108485,98543
108523,98544
108541,98561
108589,98573
108606,98582
108599,98609
108653,98588
108681,98596
108695,98632
108728,98606
108750,98649
108754,98637
108791,98639
108818,98669
108842,98665
108876,98696
108876,98678
108932,98738
108950,98710
108972,98696
109000,98751
109018,98733
109009,98736
109036,98757
109030,98745
109053,98753
109108,98773
109113,98795
109134,98780
109154,98802
109144,98797
109160,98813
109187,98814
109222,98808
109232,98831
109221,98823
109267,98834
109251,98835
109286,98827
109318,98840
109286,98836
109338,98848
109334,98858
109353,98870
109383,98869
109392,98887
109392,98865
109425,98893
109445,98910
109480,98912
109468,98928
109490,98924
109513,98931
109518,98955
109525,98958
109575,98981
109576,98963
109622,98961
109667,98978
109660,98992
109693,98997
109717,99013
109714,99022
109752,99033
109755,99033
109815,99035
109801,99040
109812,99055
109817,99070
109816,99046
109774,99015
109758,99000
109668,98986
109625,98967
109525,98908
109415,98887
109288,98807
109164,98748
109046,98708
108903,98664
108780,98604
108648,98569
108548,98525
108391,98459
108252,98403
108143,98381
108002,98309
107889,98273
107756,98202
107662,98199
107541,98149
107486,98112
107429,98068
107314,98058
107311,98026
107198,98026
107181,98018
107139,97987
107128,97992
107105,97966
107090,97977
107100,97964
107078,97979
107051,97960
107081,97972
107085,97981
107074,97987
107103,97967
107102,97991
107127,97990
107147,97994
107150,98017
107157,98022
107193,97994
107216,98021
107206,98040
107218,98043
107240,98027
107273,98061
107250,98037
107293,98080
107293,98066
107332,98087
107354,98095
107389,98107
107431,98102
107466,98128
107478,98150
107478,98150
107545,98165
107567,98170
107613,98186
107642,98226
107638,98203
107690,98227
107695,98240
107714,98242
107729,98237
107748,98238
107744,98245
107768,98249
107744,98262
107739,98258
107733,98242
107725,98233
107744,98243
107714,98248
107718,98253
107706,98230
107694,98214
107683,98219
107681,98200
107677,98209
107665,98209
107635,98229
107592,98179
107622,98204
107628,98176
107626,98195
107600,98185
107630,98163
107581,98193
107622,98190
107597,98190
107623,98196
107634,98207
107631,98210
107653,98218
107671,98226
107642,98213
107670,98226
107715,98231
107681,98265
107726,98229
107731,98258
107752,98249
107770,98261
107811,98268
107823,98292
107838,98291
107862,98302
107857,98293
107892,98293
107882,98310
107925,98321
107938,98325
107951,98334
107947,98358
107999,98360
108036,98370
108055,98377
108067,98381
108083,98403
108099,98401
108144,98402
108175,98428
108147,98411
108191,98422
108191,98438
108218,98449
108244,98432
108267,98452
108296,98443
108265,98457
108313,98483
108341,98459
108322,98488
108344,98510
108368,98493
108386,98515
108410,98541
108414,98514
108426,98514
108451,98549
108471,98526
108495,98544
108505,98552
108534,98569
108529,98563
108544,98583
108579,98584
108611,98577
108596,98616
108639,98583
108627,98609
108672,98647
108664,98623
108740,98624
108739,98657
108778,98645
108779,98697
108792,98658
108819,98689
108857,98676
108867,98698
108879,98718
108897,98725
108935,98739
108936,98747
108967,98752
108988,98757
109013,98745
109035,98776
109061,98778
109061,98788
109035,98769
109063,98774
109054,98768
109040,98790
109002,98752
108949,98701
108878,98711
108769,98665
108704,98610
108637,98568
108482,98524
108406,98512
108280,98450
108189,98418
108066,98349
107906,98331
107816,98302
107686,98211
107590,98166
107498,98151
107388,98092
107282,98065
107223,98034
107130,97989
107065,98002
107006,97950
106969,97926
106916,97918
106902,97923
106860,97892
106847,97904
106842,97876
106834,97899
106827,97868
106835,97898
106866,97899
106865,97909
106880,97924
106896,97919
106918,97935
106935,97943
106978,97961
107012,97951
107025,98000
107063,97995
107074,97989
107102,97997
107142,98020
107147,98034
107193,98026
107210,98076
107211,98066
107275,98079
107289,98104
107335,98093
107368,98119
107407,98148
107434,98133
107505,98175
107536,98171
107590,98223
107647,98225
107659,98248
107701,98265
107736,98272
107791,98263
107805,98295
107796,98302
107855,98320
107846,98306
107872,98290
107879,98308
107885,98327
107880,98322
107860,98318
107862,98293
107880,98345
107907,98316
107859,98321
107849,98307
107863,98325
107834,98299
107861,98317
107845,98313
107809,98299
107830,98297
107822,98299
107792,98286
107807,98295
107816,98281
107811,98295
107807,98266
107813,98306
107828,98301
107826,98313
107846,98308
107845,98324
107866,98305
107890,98306
107838,98342
107889,98344
107873,98327
107953,98369
107943,98369
107947,98365
107978,98359
108014,98387
108040,98398
108037,98378
108054,98385
108081,98392
108092,98422
108124,98423
108157,98417
108184,98445
108182,98451
108225,98472
108231,98465
108278,98476
108286,98500
108304,98480
108338,98492
108363,98515
108392,98505
108404,98524
108434,98535
108460,98544
108466,98573
108469,98541
108507,98573
108520,98583
108556,98575
108577,98625
108569,98610
108605,98587
108591,98607
108635,98621
108632,98630
108676,98634
108690,98648
108707,98638
108702,98658
108718,98660
108756,98664
108737,98675
108778,98653
108798,98671
108801,98675
108811,98725
108832,98714
108852,98735
108894,98721
108942,98727
108910,98728
108948,98747
108960,98754
109011,98788
109001,98749
109025,98762
109069,98803
109081,98771
109093,98798
109119,98817
109120,98805
109127,98814
109180,98834
109176,98841
109208,98838
109241,98865
109255,98834
109269,98867
109274,98865
109258,98889
109294,98883
109225,98867
109229,98849
109207,98823
109112,98820
109083,98765
109024,98764
108907,98716
108829,98709
108713,98632
108610,98604
108483,98552
108385,98508
108282,98445
108160,98402
108070,98384
107960,98332
107861,98296
107750,98270
107657,98212
107580,98202
107479,98131
107445,98138
107374,98089
107343,98096
107286,98050
107271,98051
107227,98054
107223,98056
107210,98041
107167,98036
107193,98018
107190,98041
107176,98040
107242,98052
107244,98042
107232,98070
107247,98065
107289,98070
107319,98076
107351,98118
107367,98113
107413,98128
107433,98129
107451,98158
107467,98172
107509,98171
107531,98184
107590,98195
107623,98212
107624,98211
107683,98207
107744,98263
107761,98289
107815,98299
107850,98321
107898,98332
107922,98349
107964,98395
108060,98382
108075,98409
108121,98403
108132,98441
108149,98431
108188,98442
108173,98452
108210,98444
108248,98441
108207,98445
108237,98470
108191,98474
108228,98450
108230,98457
108226,98430
108187,98454
108213,98434
108195,98428
108198,98456
108172,98434
108192,98435
108166,98438
108152,98434
108143,98417
108179,98427
108166,98446
108177,98432
108141,98398
108152,98425
108154,98432
108134,98430
108174,98427
108169,98432
108169,98429
108169,98441
108190,98460
108204,98447
108235,98451
108251,98463
108264,98466
108279,98469
108295,98484
108330,98470
108381,98498
108367,98510
108396,98514
108394,98520
108449,98539
108441,98554
108485,98578
108497,98572
108544,98573
108583,98577
108593,98605
108645,98618
108653,98629
108693,98647
108725,98636
108763,98677
108766,98691
108821,98696
108808,98696
108879,98700
108861,98730
108912,98720
108944,98744
108934,98756
108961,98756
109015,98778
109003,98770
109046,98784
109069,98804
109094,98817
109129,98817
109098,98819
109153,98829
109174,98852
109186,98866
109206,98853
109238,98860
109259,98844
109257,98864
109269,98889
109313,98873
109291,98867
109322,98892
109369,98903
109347,98917
109380,98890
109424,98912
109407,98928
109449,98912
109453,98915
109473,98952
109486,98974
109496,98962
109543,98969
109561,98969
109571,98970
109585,98996
109601,98999
109611,99004
109629,98996
109655,99018
109663,99006
109690,99020
109657,99004
109686,99007
109640,99005
109617,99016
109571,98982
109516,98953
109446,98920
109351,98891
109274,98831
109162,98773
109056,98762
108932,98697
108825,98663
108687,98606
108593,98589
108466,98521
108368,98474
108253,98432
108155,98386
108023,98338
107910,98301
107809,98244
107757,98227
107675,98195
107606,98170
107550,98142
107499,98133
107453,98084
107423,98108
107375,98096
107386,98066
107340,98095
107324,98066
107350,98064
107343,98065
107343,98084
107351,98071
107380,98070
107381,98088
107397,98106
107419,98110
107438,98129
107442,98107
107479,98147
107465,98128
107500,98133
107526,98146
107518,98145
107549,98161
107557,98153
107570,98165
107628,98198
107632,98188
107592,98206
107674,98203
107694,98230
107676,98222
107733,98231
107766,98238
107800,98267
107828,98278
107880,98304
107871,98315
107925,98302
107978,98327
107982,98349
108010,98365
108048,98387
108025,98355
108064,98358
108103,98398
108096,98360
108074,98381
108110,98368
108096,98396
108105,98379
108103,98380
108134,98377
108089,98369
108086,98359
108090,98373
108099,98383
108060,98376
108085,98364
108059,98381
108067,98362
108043,98338
108051,98360
108043,98351
108018,98355
108004,98314
108045,98323
108037,98350
108050,98337
108023,98343
108072,98371
108054,98336
108071,98338
108090,98339
108091,98349
108106,98371
108121,98363
108148,98378
108152,98395
108185,98368
108206,98394
108209,98404
108245,98416
108255,98452
108288,98415
108293,98463
108318,98442
108367,98448
108368,98449
108407,98470
108412,98459
108457,98511
108462,98505
108512,98509
108493,98525
108521,98535
108571,98533
108587,98556
108604,98559
108635,98556
108631,98591
108685,98600
108705,98600
108706,98591
108767,98605
108766,98623
108778,98622
108823,98629
108806,98637
108862,98680
108852,98631
108899,98664
108907,98690
108943,98701
108951,98688
108967,98686
108994,98695
109037,98712
109032,98728
109075,98702
109112,98732
109112,98753
109115,98751
109145,98737
109138,98758
109170,98771
109184,98765
109207,98792
109222,98786
109226,98795
109247,98780
109285,98808
109304,98816
109272,98788
109324,98820
109327,98826
109335,98822
109309,98843
109280,98799
109295,98819
109263,98783
109224,98790
109171,98727
109100,98717
109006,98694
108934,98638
108852,98590
108737,98584
108648,98507
108554,98466
108473,98439
108386,98410
108262,98371
108193,98333
108100,98278
108027,98256
107932,98215
107880,98205
107758,98165
107757,98146
107695,98107
107653,98125
107658,98075
107590,98108
107569,98082
107565,98071
107538,98057
107514,98055
107542,98057
107520,98050
107505,98082
107511,98067
107546,98077
107579,98051
107580,98082
107601,98083
107626,98088
107639,98072
107627,98114
107658,98106
107674,98124
107685,98160
107726,98148
107744,98126
107735,98161
107759,98143
107795,98173
107782,98131
107852,98182
107840,98191
107888,98195
107870,98170
107926,98214
107975,98224
108014,98240
107998,98236
108065,98286
108107,98267
108142,98290
108180,98304
108196,98334
108212,98317
108247,98331
108239,98351
108323,98330
108312,98363
108327,98350
108334,98368
108332,98385
108364,98388
108353,98371
108391,98389
108395,98363
108394,98395
108382,98369
108381,98384
108393,98374
108394,98381
108393,98370
108402,98371
108413,98378
108428,98330
108388,98353
108431,98340
108411,98363
108420,98373
108451,98383
108455,98395
108469,98402
108478,98402
108483,98408
108471,98394
108504,98424
108520,98423
108537,98416
108540,98441
108587,98444
108560,98432
108582,98434
108636,98471
108665,98478
108667,98482
108693,98493
108708,98514
108748,98506
108735,98510
108810,98512
108792,98526
108792,98527
108856,98562
108828,98564
108897,98551
108892,98567
108937,98590
108950,98583
108985,98611
108989,98599
108994,98619
109069,98624
109039,98637
109084,98639
109110,98641
109158,98644
109153,98683
109131,98675
109172,98686
109219,98683
109241,98708
109243,98705
109285,98715
109292,98714
109322,98712
109321,98727
109367,98755
109354,98764
109381,98755
109419,98780
109414,98769
109481,98773
109484,98823
109494,98797
109513,98806
109517,98817
109577,98833
109548,98834
109626,98831
109592,98841
109637,98856
109655,98874
109682,98878
109716,98895
109694,98889
109713,98912
109735,98893
109757,98916
109790,98920
109816,98914
109801,98939
109828,98932
109843,98947
109818,98925
109855,98939
109803,98926
109799,98936
109794,98910
109748,98905
109685,98873
109615,98839
109540,98807
109466,98779
109348,98737
109268,98713
109211,98644
109109,98632
109045,98577
108908,98560
108852,98506
108788,98496
108688,98442
108629,98426
108585,98373
108481,98375
108447,98302
108425,98297
108356,98308
108304,98284
108303,98280
108267,98267
108260,98270
108240,98265
108229,98266
108245,98244
108226,98264
108204,98256
108218,98266
108216,98265
108251,98276
108260,98300
108247,98310
108295,98277
108279,98295
108283,98293
108301,98321
108294,98320
108345,98324
108345,98326
108351,98324
108376,98329
108380,98346
108396,98324
108426,98358
108413,98349
108425,98375
108435,98356
108460,98379
108468,98372
108482,98389
108512,98389
108547,98405
108566,98411
108581,98419
108624,98455
108619,98435
108679,98448
108714,98451
108741,98477
108725,98497
108752,98492
108773,98503
108780,98471
108821,98511
108820,98504
108817,98530
108836,98506
108833,98523
108867,98496
108860,98512
108821,98514
108855,98514
108841,98511
108850,98520
108850,98533
108834,98507
108839,98503
108826,98521
108843,98484
108837,98490
108851,98513
108849,98511
108873,98490
108848,98528
108856,98527
108881,98542
108874,98499
108858,98517
108900,98520
108892,98525
108904,98547
108919,98540
108934,98521
108955,98543
108965,98564
108988,98539
108994,98576
109023,98581
109030,98566
109044,98587
109083,98584
109113,98603
109125,98612
109149,98598
109161,98609
109180,98647
109196,98634
109180,98652
109194,98663
109190,98659
109241,98642
109254,98660
109270,98668
109285,98678
109303,98693
109321,98655
109364,98686
109349,98720
109367,98703
109389,98700
109404,98743
109426,98742
109432,98751
109482,98737
109460,98769
109518,98776
109524,98767
109544,98782
109571,98797
109575,98792
109598,98785
109619,98827
109634,98792
109641,98832
109598,98835
109662,98839
109689,98822
109684,98839
109720,98836
109743,98849
109756,98856
109763,98860
109766,98880
109778,98891
109798,98896
109788,98872
109841,98879
109848,98903
109848,98917
109859,98917
109867,98915
109895,98898
109892,98932
109878,98916
109893,98918
109860,98912
109883,98914
109859,98886
109820,98885
109768,98872
109724,98854
109630,98838
109567,98765
109519,98738
109436,98716
109377,98666
109251,98651
109181,98610
109094,98577
109043,98544
108940,98509
108872,98462
108799,98445
108744,98412
108696,98426
108615,98376
108599,98380
108569,98346
108499,98337
108483,98319
108466,98319
108446,98321
108453,98301
108419,98306
108423,98314
108431,98283
108427,98292
108366,98294
108417,98305
108423,98312
108408,98324
108422,98318
