ir,red
110830,99414
110860,99436
110892,99451
110925,99442
110946,99472
111015,99452
110992,99469
111039,99512
111032,99507
111107,99487
111100,99533
111129,99544
111167,99527
111145,99533
111179,99550
111219,99541
111271,99575
111260,99561
111315,99565
111330,99619
111321,99597
111383,99613
111394,99606
111474,99632
111487,99654
111467,99646
111485,99649
111502,99637
111452,99630
111442,99625
111367,99574
111312,99565
111172,99496
111094,99478
110941,99408
110827,99357
110686,99312
110544,99258
110437,99181
110250,99146
110136,99084
109973,99024
109798,98966
109676,98936
109570,98863
109442,98809
109304,98788
109199,98751
109124,98697
109041,98669
108936,98631
108890,98601
108839,98605
108797,98582
108763,98569
108737,98542
108707,98563
108689,98543
108688,98543
108697,98528
108713,98560
108706,98547
108728,98565
108749,98592
108769,98597
108766,98590
108794,98591
108823,98578
108852,98602
108838,98634
108882,98644
108918,98650
108946,98640
108970,98658
108961,98701
108948,98684
109014,98674
109038,98672
109028,98687
109064,98699
109091,98690
109094,98711
109116,98735
109162,98728
109173,98747
109210,98757
109239,98781
109301,98790
109312,98810
109364,98820
109423,98843
109447,98853
109504,98886
109514,98893
109594,98881
109568,98935
109611,98912
109675,98932
109653,98927
109669,98955
109679,98934
109693,98952
109690,98937
109696,98937
109673,98938
109700,98927
109686,98942
109698,98940
109672,98910
109675,98931
109652,98904
109634,98900
109645,98893
109638,98927
109630,98901
109634,98897
109619,98903
109635,98898
109611,98911
109625,98913
109616,98910
109644,98934
109651,98896
109673,98929
109662,98915
109694,98941
109687,98923
109726,98935
109738,98943
109719,98932
109752,98931
109770,98959
109790,98954
109806,98971
109827,98999
109844,98982
109889,98989
109881,98986
109924,99031
109948,99007
109977,99042
109993,99041
110011,99048
110002,99063
110049,99041
110060,99093
110097,99092
110134,99082
110116,99112
110178,99113
110201,99104
110208,99115
110219,99140
110274,99151
110285,99176
110297,99175
110318,99161
110349,99177
110367,99198
110376,99187
110405,99194
110463,99220
110488,99241
110473,99253
110534,99249
110565,99269
110575,99277
110590,99274
110632,99305
110628,99309
110663,99308
110709,99324
110721,99323
110757,99347
110782,99360
110788,99352
110793,99345
110836,99356
110831,99358
110917,99377
110894,99372
110929,99382
110943,99411
110971,99389
110969,99396
110956,99403
110968,99391
110956,99400
110888,99365
110843,99359
110759,99298
110648,99261
110543,99204
110415,99155
110275,99125
110148,99063
110012,99006
109886,98940
109740,98887
109567,98821
109430,98793
109287,98718
109175,98668
109068,98642
108940,98583
108820,98556
108711,98492
108628,98462
108572,98420
108501,98432
108429,98397
108369,98366
108350,98357
108336,98321
108292,98349
108323,98348
108300,98348
108274,98338
108263,98348
108278,98328
108307,98343
108329,98362
108344,98369
108347,98364
108343,98381
108365,98406
108403,98400
108401,98417
108415,98411
108452,98420
108457,98414
108488,98432
108477,98448
108535,98466
108522,98460
108546,98460
108550,98479
108537,98474
108594,98495
108627,98455
108646,98506
108685,98520
108701,98526
108745,98555
108775,98538
108805,98593
108868,98600
108908,98608
108913,98612
108980,98637
108993,98650
109042,98654
109075,98674
109067,98680
109111,98687
109118,98690
109128,98673
109136,98683
109138,98689
109136,98685
109127,98688
109124,98647
109175,98688
109129,98691
109088,98681
109105,98687
109084,98649
109088,98639
109090,98661
109073,98650
109067,98650
109083,98628
109082,98660
109066,98635
109037,98632
109065,98658
109093,98634
109064,98650
109081,98660
109102,98658
109091,98666
109098,98673
109128,98654
109118,98642
109168,98671
109156,98668
109182,98705
109171,98691
109236,98697
109254,98728
109263,98717
109299,98739
109323,98735
109352,98749
109333,98768
109375,98766
109415,98785
109439,98781
109455,98798
109480,98788
109503,98813
109494,98818
109522,98855
109559,98843
109574,98835
109632,98866
109650,98889
109688,98862
109689,98881
109700,98901
109722,98912
109723,98878
109762,98907
109794,98935
109825,98907
109825,98934
109860,98960
109867,98931
109877,98950
109907,98958
109929,98980
109921,98973
109941,98983
110016,98994
109968,98985
110056,98986
110039,99013
110074,99000
110084,99039
110096,99051
110127,99040
110137,99045
110184,99058
110168,99071
110218,99081
110196,99077
110227,99091
110262,99093
110309,99102
110295,99111
110330,99090
110345,99128
110337,99121
110399,99123
110413,99136
110381,99139
110438,99132
110415,99149
110431,99149
110422,99147
110435,99149
110404,99133
110349,99093
110290,99066
110214,99040
110121,99032
109989,98977
109864,98888
109733,98854
109598,98806
109446,98740
109277,98662
109096,98621
108943,98536
108812,98491
108675,98431
108512,98388
108395,98348
108266,98282
108097,98243
108015,98184
107940,98147
107822,98105
107771,98093
107710,98063
107665,98062
107595,98048
107552,98015
107531,98008
107504,98012
107504,98002
107489,98017
107488,98007
107467,98002
107471,98019
107496,98012
107508,98024
107487,98018
107530,98020
107513,98026
107543,98025
107546,98026
107538,98046
107567,98025
107569,98065
107571,98053
107563,98058
107575,98067
107583,98054
107623,98059
107608,98045
107628,98039
107611,98062
107649,98077
107660,98077
107663,98088
107698,98080
107709,98076
107751,98135
107773,98127
107793,98140
107876,98170
107893,98161
107918,98188
107965,98190
107984,98181
108038,98237
108039,98220
108077,98224
108029,98232
108106,98244
108102,98238
108095,98246
108098,98227
108091,98252
108106,98262
108104,98235
108086,98248
108065,98246
108105,98214
108089,98234
108049,98219
108053,98218
108067,98215
108039,98210
108060,98194
108074,98180
108004,98198
108012,98199
108030,98200
108006,98196
108029,98201
108049,98212
108052,98170
108052,98175
108067,98186
108055,98213
108076,98213
108096,98224
108122,98216
108162,98241
108165,98219
108185,98263
108186,98274
108232,98287
108257,98285
108261,98289
108292,98297
108324,98316
108343,98325
108396,98352
108395,98356
108438,98340
108469,98366
108518,98364
108520,98380
108556,98396
108549,98405
108592,98423
108603,98412
108643,98450
108685,98440
108705,98461
108748,98469
108761,98491
108814,98489
108831,98498
108848,98535
108857,98525
108920,98520
108935,98538
108966,98555
108991,98564
109000,98561
109058,98567
109069,98581
109044,98599
109139,98625
109148,98596
109151,98623
109182,98632
109209,98655
109222,98633
109243,98662
109265,98691
109302,98666
109306,98675
109333,98669
109352,98664
109369,98712
109390,98713
109390,98718
109432,98716
109454,98742
109452,98739
109455,98741
109506,98754
109538,98745
109547,98786
109545,98778
109582,98773
109608,98799
109603,98786
109675,98805
109635,98816
109692,98836
109701,98819
109757,98861
109776,98837
109795,98829
109790,98889
109798,98884
109828,98887
109849,98893
109865,98907
109874,98903
109934,98899
109924,98920
109922,98881
109941,98913
109906,98901
109877,98887
109818,98862
109758,98824
109653,98799
109578,98743
109445,98689
109308,98662
109150,98577
109008,98517
108847,98462
108714,98413
108543,98349
108375,98261
108265,98248
108109,98171
107934,98130
107865,98072
107696,98035
107615,97974
107500,97935
107416,97917
107347,97893
107236,97857
107224,97824
107164,97826
107091,97784
107067,97803
107089,97793
107064,97781
107023,97803
107024,97780
107066,97810
107053,97795
107006,97777
107064,97820
107050,97836
107081,97832
107075,97819
107092,97837
107097,97839
107122,97832
107134,97843
107110,97871
107152,97872
107115,97843
107155,97854
107142,97871
107157,97877
107174,97855
107189,97860
107196,97871
107196,97882
107211,97885
107220,97906
107249,97884
107285,97921
107311,97924
107348,97931
107368,97958
107424,97951
107471,97985
107507,97996
107555,98015
107551,98045
107603,98047
107619,98051
107684,98088
107673,98064
107706,98098
107742,98082
107725,98083
107712,98096
107738,98082
107744,98081
107748,98073
107736,98065
107698,98064
107715,98082
107700,98072
107717,98066
107651,98054
107685,98075
107668,98062
107669,98064
107659,98051
107630,98058
107619,98052
107631,98046
107625,98042
107656,98041
107649,98054
107648,98055
107645,98063
107633,98046
107655,98005
107671,98042
107680,98039
107673,98045
107697,98065
107703,98080
107736,98097
107728,98076
107788,98089
107803,98120
107794,98110
107840,98136
107834,98117
107878,98120
107903,98168
107924,98152
107953,98164
107967,98184
107974,98164
107997,98193
108020,98189
108057,98181
108081,98224
108084,98229
108137,98228
108165,98223
108186,98226
108163,98264
108232,98263
108266,98291
108233,98293
108283,98271
108306,98293
108332,98328
108342,98324
108382,98326
108379,98329
108418,98347
108432,98344
108432,98356
108464,98358
108480,98370
108518,98368
108554,98363
108530,98364
108536,98381
108541,98366
108594,98392
108562,98396
108614,98410
108611,98412
108650,98430
108641,98413
108678,98429
108671,98407
108690,98410
108713,98454
108740,98450
108730,98458
108765,98437
108796,98458
108742,98478
108814,98455
108811,98485
108826,98483
108859,98494
108875,98510
108902,98526
108908,98500
108925,98497
108950,98537
108963,98522
108977,98549
108985,98548
109027,98536
109061,98575
109053,98573
109031,98547
109055,98558
109095,98551
109045,98567
109084,98574
109033,98538
109001,98518
108930,98500
108852,98484
108721,98415
108664,98383
108544,98336
108408,98290
108273,98212
108125,98169
107981,98108
107861,98066
107710,98022
107578,97937
107417,97916
107302,97842
107181,97815
107074,97788
106952,97724
106873,97686
106797,97650
106691,97639
106655,97620
106610,97613
106544,97595
106485,97577
106500,97548
106469,97536
106428,97569
106438,97587
106441,97550
106433,97550
106417,97549
106446,97546
106446,97578
106461,97561
106505,97574
106457,97576
106519,97608
106500,97599
106569,97601
106503,97580
106563,97619
106521,97604
106566,97624
106585,97623
106570,97622
106592,97612
106602,97638
106638,97623
106624,97624
106638,97637
106686,97634
106685,97670
106709,97663
106777,97676
106795,97703
106845,97719
106865,97738
106932,97766
106924,97740
107015,97778
107050,97830
107085,97825
107117,97822
107141,97846
107155,97842
107179,97850
107200,97874
107184,97864
107225,97866
107200,97875
107233,97874
107209,97860
107248,97852
107225,97885
107209,97857
107222,97840
107234,97849
107204,97859
107216,97861
107221,97872
107231,97856
107214,97860
107227,97859
107261,97880
107222,97854
107238,97872
107231,97867
107257,97864
107254,97893
107251,97878
107288,97872
107303,97890
107333,97905
107336,97901
107342,97898
107387,97922
107377,97929
107417,97937
107435,97944
107459,97949
107498,97988
107537,97977
107571,97999
107566,98008
107635,98021
107659,98000
107701,98043
107691,98070
107729,98084
107777,98086
107834,98120
107861,98101
107879,98118
107937,98128
107899,98136
107977,98177
108008,98171
108042,98178
108057,98203
108085,98174
108120,98187
108122,98224
108171,98246
108197,98241
108225,98263
108234,98259
108272,98270
108308,98292
108339,98280
108353,98281
108327,98296
108399,98316
108413,98321
108427,98340
108461,98322
108437,98327
108489,98347
108523,98371
108524,98335
108548,98363
108604,98386
108605,98386
108611,98405
108645,98391
108635,98402
108651,98422
108704,98410
108709,98420
108694,98436
108719,98432
108760,98452
108734,98454
108762,98461
108795,98482
108795,98479
108831,98472
108849,98484
108852,98478
108893,98509
108913,98515
108922,98522
108974,98520
108936,98527
108977,98552
109015,98535
109048,98556
109042,98548
109051,98561
109088,98574
109107,98581
109135,98611
109138,98594
109163,98598
109199,98594
109208,98621
109240,98651
109253,98637
109271,98641
109268,98654
109255,98622
109235,98647
109176,98605
109158,98553
109035,98539
108942,98511
108856,98467
108736,98389
108573,98368
108448,98306
108325,98237
108147,98158
107996,98111
107868,98064
107716,97996
107564,97950
107409,97890
107302,97844
107175,97795
107000,97758
106931,97698
106813,97658
106739,97644
106654,97599
106580,97596
106534,97583
106453,97578
106434,97533
106446,97556
106414,97529
106355,97544
106369,97541
106353,97533
106383,97538
106333,97530
106347,97527
106406,97539
106408,97546
106403,97558
106414,97557
106380,97577
106436,97554
106436,97564
106421,97557
106422,97560
106446,97578
106460,97578
106489,97570
106456,97583
106437,97575
106492,97582
106460,97566
106508,97584
106503,97577
106527,97589
106521,97603
106549,97628
106612,97628
106643,97664
106623,97655
106704,97683
106744,97699
106775,97713
106813,97725
106835,97763
106890,97748
106921,97762
106936,97783
106964,97802
106987,97765
107009,97802
106981,97789
107018,97774
107019,97807
106980,97794
106997,97788
107006,97785
107003,97776
106989,97782
106989,97801
106975,97776
106974,97767
106991,97776
106967,97749
106959,97785
106936,97767
106948,97770
106976,97756
106954,97789
106950,97784
106952,97776
106974,97768
106972,97768
106962,97767
107008,97758
106986,97798
107027,97789
107000,97802
107019,97759
107056,97833
107071,97829
107122,97828
107104,97846
107143,97811
107157,97844
107177,97870
107222,97871
107222,97862
107290,97889
107250,97886
107343,97935
107342,97939
107381,97930
107401,97947
107422,97947
107437,97944
107463,97951
107496,97963
107498,97994
107535,97991
107547,98001
107589,98030
107627,98032
107633,98020
107684,98045
107692,98060
107701,98083
107712,98066
107799,98064
107771,98097
107826,98106
107810,98120
107867,98114
107895,98133
107939,98123
107928,98171
107904,98146
107969,98147
107998,98148
107999,98163
108017,98161
108014,98167
108061,98178
108067,98197
108093,98207
108100,98210
108127,98217
108153,98240
108164,98199
108195,98225
108169,98255
108190,98238
108261,98226
108223,98242
108258,98272
108290,98261
108322,98306
108309,98257
108380,98293
108322,98307
108393,98306
108399,98312
108422,98335
108451,98349
108485,98350
108470,98362
108520,98360
108512,98336
108561,98388
108578,98386
108610,98425
108607,98399
108664,98396
108645,98417
108677,98413
108689,98401
108690,98388
108672,98428
108683,98421
108633,98393
108601,98381
108538,98350
108419,98313
108347,98262
108200,98202
108103,98182
107985,98095
107841,98068
107707,97991
107532,97951
107407,97875
107269,97841
107116,97783
107010,97711
106883,97687
106757,97644
106645,97588
106532,97535
106439,97529
106354,97499
106276,97470
106209,97453
106172,97420
106087,97396
106103,97404
106040,97386
106064,97378
106024,97405
106051,97383
105993,97399
106021,97392
106039,97409
106044,97403
106054,97393
106050,97420
106045,97427
106086,97425
106093,97417
106103,97423
106129,97427
106130,97446
106150,97437
106141,97431
106156,97461
106193,97456
106172,97439
106215,97454
106220,97482
106189,97462
106241,97480
106254,97494
106282,97486
106330,97510
106337,97542
106378,97527
106463,97581
106470,97587
106517,97606
106553,97614
106611,97622
106643,97649
106697,97669
106741,97692
106735,97700
106810,97710
106833,97709
106834,97723
106862,97718
106880,97736
106863,97745
106888,97739
106877,97755
106917,97747
106880,97761
106894,97734
106915,97765
106892,97730
106922,97736
106880,97754
106890,97743
106857,97711
106893,97725
106881,97728
106894,97730
106868,97722
106865,97731
106862,97735
106880,97720
106877,97728
106881,97725
106911,97751
106907,97727
106938,97756
106931,97765
106974,97774
106933,97755
106995,97773
107034,97786
107008,97799
107087,97823
107076,97799
107112,97803
107161,97840
107136,97850
107230,97869
107214,97880
107240,97869
107239,97880
107306,97893
107313,97886
107350,97915
107373,97953
107386,97931
107446,97944
107437,97980
107499,97974
107491,97974
107536,98005
107557,98027
107558,98040
107591,98036
107654,98034
107678,98055
107688,98045
107734,98089
107776,98091
107785,98104
107776,98121
107814,98111
107842,98130
107891,98120
107906,98144
107909,98150
107938,98128
107967,98162
107962,98163
108006,98152
108027,98177
108036,98206
108058,98204
108052,98208
108082,98210
108115,98224
108091,98231
108129,98212
108161,98196
108152,98230
108176,98262
108177,98259
108218,98240
108224,98276
108259,98268
108248,98290
108253,98280
108294,98282
108286,98297
108316,98311
108338,98314
108344,98313
108406,98320
108401,98335
108451,98336
108449,98317
108461,98370
108476,98359
108515,98391
108533,98394
108545,98372
108595,98407
108601,98435
108578,98419
108617,98422
108651,98423
108669,98437
108668,98435
108665,98458
108650,98442
108658,98383
108634,98412
108586,98387
108494,98349
108401,98312
108316,98261
108155,98212
108036,98141
107886,98115
107720,98015
107571,97955
107426,97913
107265,97854
107115,97799
106944,97745
106807,97660
106663,97598
106538,97570
106393,97513
106244,97460
106153,97438
106035,97395
106009,97339
105917,97340
105828,97321
105796,97338
105752,97303
105703,97258
105663,97275
105654,97263
105610,97250
105606,97238
105612,97236
105608,97256
105582,97241
105601,97222
105606,97234
105604,97244
105620,97240
105593,97234
105606,97238
105588,97235
105626,97240
105593,97253
105604,97252
105603,97234
105638,97235
105600,97253
105624,97264
105606,97267
105627,97239
105612,97259
105647,97241
105657,97256
105648,97268
105697,97266
105708,97304
105745,97316
105750,97326
105820,97315
105879,97363
105888,97352
105942,97390
105955,97412
106017,97445
106074,97435
106067,97487
106125,97467
106198,97487
106217,97482
106244,97513
106252,97518
106314,97525
106290,97527
106270,97542
106324,97531
106325,97546
106330,97547
106348,97548
106341,97557
106333,97531
106339,97561
106350,97541
106322,97564
106341,97551
106335,97536
106330,97523
106318,97536
106352,97542
106333,97550
106344,97554
106353,97542
106380,97576
106374,97578
106366,97584
106408,97567
106422,97577
106415,97597
106451,97595
106481,97603
106519,97587
106504,97626
106581,97641
106558,97645
106609,97659
106645,97665
106653,97683
106666,97698
106697,97683
106767,97693
106748,97718
106786,97743
106846,97757
106839,97756
106888,97768
106876,97788
106940,97790
106972,97822
106973,97821
107021,97839
107039,97834
107100,97827
107126,97865
107093,97901
107161,97887
107226,97906
107209,97904
107250,97925
107291,97916
107316,97949
107315,97937
107379,97938
107405,97966
107409,97986
107454,97986
107465,98011
107496,98030
107530,98050
107544,98043
107563,98043
107594,98064
107626,98064
107655,98055
107653,98075
107687,98095
107720,98110
107747,98108
107740,98130
107794,98111
107814,98138
107778,98136
107836,98146
107838,98156
107875,98173
107867,98191
107945,98175
107920,98177
107949,98180
107940,98194
107994,98191
108008,98213
108009,98211
108034,98226
108035,98228
108037,98243
108087,98235
108113,98237
108112,98265
108125,98252
108146,98277
108171,98290
108172,98296
108207,98285
108222,98314
108246,98298
108252,98318
108272,98328
108278,98322
108340,98319
108344,98338
108368,98351
108391,98381
108419,98383
108441,98375
108460,98399
108480,98411
108486,98426
108555,98437
108565,98443
108592,98448
108601,98469
108638,98419
108701,98485
108670,98485
108710,98476
108710,98493
108738,98481
108734,98503
108720,98472
108721,98479
108656,98458
108580,98421
108505,98391
108380,98343
108259,98273
108114,98245
107958,98162
107784,98094
107623,98029
107436,97954
107277,97887
107119,97834
106956,97739
106785,97698
106634,97640
106480,97593
106330,97537
106173,97492
106109,97435
105977,97383
105918,97375
105823,97341
105728,97310
105669,97288
105603,97270
105593,97260
105490,97240
105485,97216
105478,97229
105435,97233
105439,97202
105415,97200
105439,97206
105438,97203
105448,97224
105450,97222
105457,97217
105463,97221
105449,97231
105435,97205
105441,97225
105457,97251
105478,97221
105486,97253
105481,97249
105481,97241
105459,97215
105470,97250
105457,97228
105453,97237
105484,97246
105494,97252
105452,97247
105479,97267
105494,97262
105538,97249
105559,97283
105565,97275
105631,97315
105647,97343
105689,97334
105731,97357
105768,97376
105852,97407
105908,97404
105898,97420
105944,97454
106005,97481
106036,97453
106058,97509
106077,97502
106069,97501
106113,97511
106131,97531
106144,97516
106128,97529
106129,97554
106137,97529
106168,97536
106136,97544
106173,97533
106161,97538
106185,97559
106160,97545
106179,97513
106181,97538
106157,97525
106178,97538
106178,97539
106215,97530
106209,97536
106221,97554
106203,97559
106250,97561
106261,97600
106241,97585
106288,97587
106298,97581
106326,97603
106339,97603
106342,97623
106376,97619
106434,97610
106429,97646
106447,97673
106503,97663
106502,97663
106554,97700
106606,97723
106630,97705
106666,97723
106708,97751
106705,97769
106744,97780
106790,97793
106822,97809
106841,97824
106853,97804
106883,97856
106936,97853
106976,97864
107017,97856
107007,97890
107060,97921
107104,97914
107143,97916
107161,97946
107138,97942
107212,97966
107239,97981
107248,97976
107322,97985
107338,98014
107334,98008
107387,98044
107400,98021
107448,98045
107485,98052
107465,98056
107524,98070
107538,98078
107587,98088
107581,98121
107637,98123
107648,98110
107665,98127
107665,98133
107713,98142
107721,98151
107767,98152
107795,98153
107773,98164
107820,98195
107865,98210
107845,98206
107889,98233
107896,98236
107959,98255
107959,98243
107965,98270
108000,98233
108014,98296
108047,98288
108041,98280
108091,98296
108093,98300
108091,98304
108127,98321
108145,98308
108212,98346
108177,98354
108234,98357
108211,98364
108264,98370
108281,98395
108284,98393
108307,98388
108346,98407
108345,98413
108359,98413
108399,98445
108435,98437
108460,98450
108447,98463
108482,98447
108496,98462
108520,98460
108539,98481
108545,98505
108564,98502
108541,98510
108623,98487
108618,98527
108628,98538
108654,98542
108694,98528
108677,98540
108725,98572
108726,98548
108765,98553
108798,98552
108805,98553
108845,98571
108855,98597
108902,98619
108910,98631
108935,98670
109000,98651
108991,98667
109031,98683
109044,98705
109079,98701
109104,98705
109103,98712
109170,98750
109189,98737
109201,98744
109214,98773
109246,98760
109231,98758
109273,98750
109210,98742
109179,98741
109136,98710
109040,98671
108915,98615
108797,98564
108633,98493
108494,98428
108321,98380
108144,98291
107963,98225
107777,98140
107594,98066
107416,98017
107251,97924
107099,97883
106903,97799
106802,97726
106614,97699
106497,97635
106374,97618
106252,97549
106132,97526
106071,97513
105955,97452
105919,97430
105853,97416
105786,97413
105774,97391
105703,97392
105728,97377
105693,97377
105692,97358
105653,97359
105674,97375
105672,97355
105678,97387
105673,97393
105698,97371
105680,97387
105711,97382
105707,97402
105692,97387
105700,97399
105709,97386
105714,97429
105703,97394
105733,97419
105730,97408
105738,97410
105714,97382
105739,97433
105720,97422
105732,97413
105750,97413
105767,97450
105786,97422
105800,97441
105850,97464
105853,97485
105901,97485
105940,97501
105998,97521
106024,97554
106051,97557
106114,97562
106186,97591
106182,97621
106237,97626
106259,97652
106276,97658
106305,97653
106339,97687
106348,97682
106356,97680
106411,97697
106402,97708
106392,97717
106420,97710
106404,97733
106406,97692
106457,97711
106424,97705
106427,97702
106423,97726
106426,97731
106416,97729
106441,97721
106452,97708
106431,97728
106442,97726
106467,97734
106441,97742
106487,97735
106457,97746
106514,97752
106491,97742
106547,97762
106523,97793
106584,97782
106589,97798
106611,97810
106642,97822
106656,97809
106701,97808
106743,97816
106756,97845
106780,97888
106818,97871
106861,97918
106844,97899
106904,97923
106924,97938
106945,97950
107003,97943
107037,97991
107058,97976
107104,98008
107126,98008
107169,98015
107156,98023
107230,98058
107234,98057
107306,98080
107317,98103
107344,98099
107344,98103
107366,98115
107403,98120
107437,98154
107476,98164
107496,98189
107528,98202
107552,98164
107572,98186
107611,98212
107625,98217
107677,98234
107670,98232
107720,98261
107741,98247
107779,98267
107774,98270
107824,98277
107854,98278
107847,98295
107855,98309
107915,98316
107920,98331
107929,98315
107978,98349
107968,98340
107971,98356
108019,98342
108040,98376
108042,98376
108065,98401
108102,98398
108112,98414
108123,98404
108155,98427
108153,98417
108195,98432
108192,98446
108216,98438
108237,98461
108254,98457
108284,98492
108310,98478
108323,98461
108359,98525
108367,98495
108407,98509
108392,98511
108459,98551
108434,98528
108475,98546
108484,98536
108515,98576
108535,98581
108547,98598
108563,98583
108570,98601
108612,98613
108644,98603
108642,98615
108686,98640
108683,98636
108726,98642
108744,98646
108775,98643
108781,98667
108804,98681
108808,98682
108866,98681
108862,98699
108870,98694
108901,98726
108947,98727
108923,98731
108978,98731
108998,98742
109029,98781
109036,98767
109034,98771
109066,98786
109072,98787
109135,98786
109164,98822
109177,98793
109212,98830
109215,98840
109238,98861
109299,98876
109288,98862
109359,98884
109372,98906
109408,98915
109438,98929
109446,98939
109484,98943
109523,98964
109550,98962
109572,98992
109591,98978
109644,98975
109620,98999
109647,98984
109666,99012
109642,98991
109644,98964
109576,98963
109509,98929
109401,98891
109301,98838
109103,98763
108946,98694
108772,98615
108617,98546
108425,98488
108285,98423
108105,98346
107901,98264
107718,98175
107521,98129
107359,98058
107211,97996
107092,97969
106954,97910
106818,97832
106715,97799
106568,97761
106517,97703
106388,97693
106336,97686
106280,97661
106203,97658
106171,97605
106141,97600
106127,97611
106093,97587
106075,97620
106071,97587
106078,97595
106071,97592
106058,97621
106079,97618
106091,97615
106118,97628
106100,97634
106153,97619
106148,97635
106168,97671
106178,97629
106201,97628
106218,97669
106206,97674
106193,97675
106230,97704
106237,97668
106241,97684
106234,97669
106273,97711
106289,97710
106289,97722
106296,97708
106360,97729
106347,97749
106396,97772
106430,97772
106482,97778
106546,97810
106549,97838
106625,97863
106668,97870
106704,97888
106714,97901
106765,97918
106822,97949
106808,97942
106853,97927
106845,97967
106887,97978
106907,97946
106882,97965
106870,97964
106866,97986
106883,97987
106893,97970
106888,97979
106888,97970
106905,97965
106884,97964
106888,97986
106895,97948
106876,97950
106870,97949
106880,97951
106888,97930
106898,97986
106878,97957
106893,97970
106886,97983
106887,97987
106905,97983
106914,98025
106954,97980
106949,97986
106966,98014
107007,97985
107024,98008
107051,98040
107084,98019
107101,98063
107127,98063
107134,98075
107186,98097
107206,98100
107228,98108
107246,98116
107303,98133
107346,98154
107365,98190
107413,98195
107437,98204
107460,98220
107479,98232
107539,98218
107582,98207
107599,98220
107645,98256
107658,98277
107716,98304
107754,98325
107753,98332
107806,98353
107835,98345
107868,98371
107893,98403
107903,98392
107955,98395
107985,98426
108014,98409
108043,98433
108052,98452
108093,98464
108122,98469
108126,98473
108158,98502
108206,98512
108221,98493
108249,98511
108279,98518
108265,98515
108343,98565
108333,98551
108347,98554
108406,98558
108418,98578
108434,98601
108427,98626
108504,98596
108509,98613
108532,98640
108536,98619
108544,98651
108573,98652
108605,98665
108618,98679
108639,98661
108661,98677
108666,98695
108719,98701
108703,98697
108726,98717
108768,98722
108792,98710
108811,98729
108808,98766
108807,98758
108877,98751
108861,98768
108894,98777
108897,98775
108950,98760
108979,98829
108982,98790
108997,98839
109036,98810
109055,98827
109092,98842
109106,98872
109137,98860
109173,98870
109188,98897
109201,98888
109253,98894
109295,98913
109259,98922
109347,98928
109335,98939
109367,98925
109389,98947
109394,98968
109429,98985
109471,98987
109453,99005
109533,98998
109488,99015
109575,99034
109562,99022
109609,99028
109615,99049
109668,99053
109679,99044
109695,99093
109701,99092
109750,99072
109747,99116
109788,99100
109801,99112
109807,99106
109853,99129
109879,99164
109898,99145
109914,99162
109919,99177
109982,99158
109988,99181
110028,99188
110033,99215
110054,99207
110107,99228
110135,99240
110135,99257
110203,99267
110230,99296
110280,99292
110301,99309
110310,99308
110359,99333
110386,99333
110424,99351
110433,99377
110461,99362
110469,99374
110481,99387
110475,99376
110510,99361
110476,99351
110385,99360
110325,99305
110204,99269
110064,99192
109878,99135
109697,99025
109490,98937
109271,98851
109100,98787
108913,98711
108750,98671
108536,98576
108382,98498
108202,98444
108051,98394
107870,98305
107708,98263
107566,98197
107440,98137
107321,98137
107187,98070
107125,98000
107017,98001
106937,97949
106898,97925
106826,97931
106797,97900
106744,97908
106726,97926
106705,97870
106709,97879
106670,97872
106680,97902
106673,97888
106697,97916
106711,97930
106697,97908
106735,97912
106740,97906
106742,97946
106794,97939
106787,97947
106814,97958
106839,97980
106850,97979
106848,97979
106898,97986
106913,97998
106915,98018
106946,97996
106928,98023
106958,98026
106975,98041
106965,98040
107041,98070
107038,98069
107103,98062
107120,98095
107147,98118
107220,98131
107293,98184
107288,98178
107339,98183
107403,98223
107417,98229
107430,98241
107506,98232
107519,98266
107524,98261
107554,98269
107578,98286
107530,98289
107559,98283
107562,98282
107574,98261
107560,98275
107572,98255
107548,98256
107546,98249
107560,98283
107525,98255
107524,98244
107523,98255
107495,98248
107511,98241
107514,98237
107473,98251
107453,98215
107481,98251
107460,98226
107491,98253
107450,98224
107483,98231
107479,98250
107502,98242
107518,98254
107518,98244
107548,98270
107571,98282
107572,98287
107601,98297
107653,98326
107663,98309
107678,98332
107732,98337
107747,98364
107796,98372
107821,98390
107851,98394
107881,98400
107921,98421
107944,98440
107995,98432
108015,98467
108035,98473
108090,98499
108125,98498
108147,98516
108202,98542
108206,98536
108238,98553
108266,98565
108313,98577
108338,98596
108346,98598
108388,98629
108421,98641
108451,98620
108464,98646
108527,98682
108545,98682
108536,98664
108579,98683
108579,98703
108615,98708
108608,98725
108681,98734
108661,98736
108690,98742
108758,98777
108736,98758
108781,98754
108825,98778
108823,98779
108854,98791
108856,98805
108904,98812
108872,98818
108901,98820
108936,98834
108930,98814
108995,98837
108993,98859
109001,98864
108994,98872
109020,98867
109048,98886
109044,98884
109078,98903
109137,98876
109107,98892
109124,98905
109158,98918
109182,98930
109180,98931
109234,98944
109243,98954
109238,98960
109259,98956
109317,98972
109333,98957
109336,98987
109350,98990
109387,98976
109374,98989
109403,99015
109412,99020
109463,99004
109470,99047
109485,99054
109526,99068
109566,99058
109543,99057
109590,99084
109580,99088
109628,99114
109668,99127
109696,99122
109738,99145
109777,99148
109776,99154
109787,99143
109830,99178
109859,99200
109881,99186
109902,99195
109937,99225
109960,99235
109949,99227
110014,99251
110029,99263
110044,99254
110080,99266
110114,99298
110110,99259
110147,99296
110147,99309
110191,99292
110241,99300
110232,99345
110265,99350
110288,99346
110289,99363
110326,99393
110363,99376
110364,99375
110410,99389
110415,99397
110443,99429
110459,99424
110476,99430
110530,99443
110522,99450
110568,99447
110599,99461
110623,99465
110611,99498
110646,99495
110703,99486
110695,99523
110746,99543
110785,99551
110819,99544
110824,99538
110879,99604
110892,99591
110940,99598
110968,99608
110976,99616
111030,99636
111035,99645
111080,99652
111094,99667
111102,99677
111120,99702
111139,99669
111148,99658
111099,99673
111075,99619
110990,99612
110882,99549
110686,99492
110552,99421
110335,99315
110121,99226
109870,99145
109664,99068
109501,98993
109302,98905
109097,98859
108964,98757
108771,98672
108635,98625
108450,98557
108325,98507
108147,98451
108035,98417
107912,98357
107826,98335
107729,98265
107663,98281
107588,98239
107512,98236
107474,98219
107437,98191
107423,98211
107389,98202
107352,98154
107339,98184
107350,98152
107333,98184
107370,98192
107368,98196
107367,98177
107390,98190
107432,98213
107431,98225
107483,98236
107498,98255
107542,98255
107520,98264
107584,98288
107590,98286
107647,98317
107647,98318
107710,98320
107721,98326
107742,98363
107755,98358
107788,98361
107804,98386
107859,98386
107862,98401
107924,98417
107978,98426
108016,98471
108019,98477
108103,98474
108124,98519
108156,98531
108228,98554
108254,98564
108298,98574
108312,98605
108314,98588
108339,98593
108319,98617
108366,98597
108346,98602
108340,98575
108319,98580
108347,98572
108320,98573
108302,98583
108299,98585
108277,98564
108265,98530
108249,98559
108209,98533
108219,98536
108198,98536
108186,98518
108189,98505
108166,98526
108176,98517
108133,98509
108152,98517
108144,98505
108137,98530
108137,98507
108154,98521
108131,98518
108175,98500
108190,98513
108195,98552
108225,98536
108240,98530
108223,98557
108307,98552
108302,98574
108328,98590
108368,98576
108378,98594
108445,98603
108436,98630
108452,98634
108510,98653
108537,98658
108556,98692
108608,98682
108628,98717
108683,98703
108693,98726
108741,98735
108751,98759
108789,98767
108857,98772
108865,98809
108875,98794
108914,98794
108956,98831
108979,98839
108989,98844
109021,98849
109074,98852
109060,98877
109125,98877
109134,98871
109141,98907
109192,98900
109196,98920
109239,98927
109247,98948
109251,98942
109275,98934
109295,98964
109346,98957
109374,98973
109382,98999
109425,98985
109417,99019
109466,99001
109452,99005
109473,99029
109503,99042
109508,99037
109538,99050
109567,99053
109579,99064
109595,99078
109604,99069
109639,99097
109648,99099
109668,99109
109729,99094
109717,99130
109765,99136
109778,99141
109777,99151
109830,99150
109865,99169
109870,99160
109904,99192
109928,99201
109944,99193
109991,99209
110028,99230
110026,99233
110081,99239
110119,99253
110119,99264
110191,99290
110189,99292
110227,99311
110279,99304
110312,99342
110322,99352
110349,99360
110406,99374
110443,99403
110494,99397
110523,99421
110552,99464
110614,99447
110632,99488
110718,99483
110706,99519
110773,99542
110799,99533
110855,99564
110895,99575
110937,99601
110983,99614
111007,99622
111060,99639
111109,99682
111129,99682
111169,99673
111199,99719
111257,99696
111285,99735
111315,99751
111368,99755
111373,99764
111431,99805
111490,99783
111507,99817
111556,99810
111583,99835
111620,99856
111647,99900
111728,99873
111721,99879
111770,99919
111809,99942
111840,99951
111871,99973
111909,99964
111959,99998
111981,100003
112066,99999
112055,100034
112084,100060
112155,100078
112169,100071
112228,100076
112255,100072
112276,100098
112332,100148
112344,100135
112344,100170
112355,100155
112419,100179
112417,100186
112444,100181
112419,100170
112367,100153
112359,100116
112227,100100
112131,100015
111999,99963
111817,99895
111583,99816
111378,99714
111112,99627
110898,99541
110621,99412
110429,99328
110223,99261
110050,99184
109894,99101
109753,99056
109646,99007
109512,99005
109398,98918
109309,98893
109225,98837
109116,98841
109051,98794
109011,98760
108963,98736
108916,98765
108864,98752
108850,98722
108818,98724
108816,98733
108830,98734
108834,98733
108842,98740
108835,98758
108879,98763
108895,98776
108926,98767
108972,98778
108962,98800
109020,98819
109080,98855
109073,98859
109136,98882
109189,98888
109204,98907
109280,98925
109342,98956
109320,98949
109403,98942
109449,98988
109487,99005
109533,99039
109575,99038
109657,99083
109697,99094
109808,99139
109853,99165
109923,99174
109980,99209
110050,99234
110109,99254
110157,99295
110190,99296
110281,99304
110301,99311
110289,99327
110276,99330
110343,99331
110285,99301
110279,99320
110247,99308
110248,99298
110194,99270
110161,99240
110160,99241
110085,99233
110093,99217
110001,99194
109997,99173
109954,99172
109947,99158
109890,99151
109860,99138
109858,99117
109847,99126
109806,99108
109796,99112
109773,99103
109742,99113
109755,99076
109751,99064
109775,99099
109758,99061
109769,99100
109750,99100
109783,99103
109767,99093
109791,99127
109774,99096
109836,99153
109845,99134
109847,99125
109888,99156
109915,99161
109967,99153
109963,99180
110025,99194
110048,99210
110072,99203
110087,99236
110143,99260
110203,99289
110228,99273
110274,99284
110288,99302
110293,99316
110359,99329
110358,99347
110409,99357
110438,99365
110495,99373
110487,99387
110562,99373
110567,99387
110618,99426
110647,99428
110662,99452
110708,99456
110731,99497
110777,99490
110815,99521
110834,99512
110875,99533
110919,99543
110930,99544
110962,99575
110978,99571
111006,99579
111031,99592
111089,99620
111088,99626
111132,99619
111133,99654
111161,99659
111184,99644
111216,99659
111219,99645
111276,99648
111273,99690
111310,99685
111311,99687
111335,99694
111359,99682
111350,99703
111395,99730
111399,99735
111421,99723
111430,99749
111428,99748
111470,99743
111477,99767
111497,99762
111529,99754
111532,99784
111573,99776
111558,99801
111600,99770
111604,99803
111641,99833
111651,99832
111714,99836
111729,99845
111742,99844
111762,99867
111801,99875
111816,99881
111871,99905
111858,99918
111929,99912
111952,99925
111927,99933
111983,99928
112004,99944
112005,99952
112051,99947
112040,99975
112008,99950
112050,99967
111985,99938
111948,99888
111831,99878
111718,99817
111587,99743
111408,99698
111246,99610
111030,99528
110843,99423
110651,99385
110407,99282
110288,99237
110132,99162
109975,99132
109841,99053
109728,98988
109632,98954
109510,98936
109437,98889
109338,98865
109251,98830
109188,98790
109123,98782
109061,98765
109040,98746
108989,98746
108974,98754
108978,98726
108965,98750
108944,98732
108971,98735
108970,98743
108995,98761
109022,98763
109063,98778
109096,98817
109102,98827
109147,98818
109200,98848
109238,98836
109263,98868
109320,98883
109373,98917
109383,98933
109443,98941
109509,98975
109570,98977
109598,99013
109619,99017
109709,99058
109715,99071
109812,99086
109849,99124
109903,99135
109966,99156
110030,99175
110106,99206
110144,99211
110248,99276
110302,99287
110409,99325
110440,99360
110517,99348
110551,99391
110607,99425
110681,99428
110689,99419
110737,99459
110729,99438
110760,99444
110777,99450
110738,99481
110747,99425
110696,99449
110696,99427
110658,99402
110613,99369
110596,99348
110555,99369
110549,99355
110512,99336
110502,99351
110442,99308
110432,99288
110407,99299
110361,99260
110374,99286
110363,99266
110355,99280
110345,99270
110304,99243
110309,99259
110331,99249
110340,99264
110330,99281
110361,99270
110367,99282
110394,99298
110395,99298
110439,99307
110427,99303
110510,99315
110532,99339
110547,99333
110585,99362
110622,99375
110649,99387
110680,99402
110714,99414
110760,99429
110777,99446
110843,99473
110883,99475
110923,99475
110961,99506
111000,99524
111031,99544
111085,99554
111112,99588
111179,99611
111190,99624
111228,99646
111271,99631
111320,99656
111370,99683
111388,99722
111440,99698
111495,99737
111516,99736
111562,99765
111580,99755
111618,99754
111652,99787
111683,99817
111732,99829
111797,99846
111789,99847
111803,99836
111838,99849
111875,99854
111887,99903
111929,99889
111951,99893
111966,99900
112004,99919
112031,99920
112043,99937
112075,99962
112097,99951
112106,99958
112155,99990
112146,99998
112177,100030
112202,99987
112224,99994
112263,100042
112258,100037
112307,100043
112315,100051
112351,100041
112350,100047
112394,100095
112388,100082
112416,100106
112450,100074
112475,100125
112508,100130
112508,100101
112538,100139
112556,100141
112575,100153
112564,100160
112618,100159
112622,100175
112636,100174
112637,100163
112641,100176
112623,100121
112631,100140
112576,100125
112490,100086
112413,100046
112277,99999
112132,99943
111938,99851
111800,99800
111571,99718
111352,99636
111173,99536
110939,99475
110743,99378
110570,99315
110434,99265
110305,99210
110153,99146
110040,99100
109960,99079
109870,99040
109781,98978
109713,98974
109621,98946
109565,98907
109496,98932
109472,98869
109407,98880
109400,98862
109330,98840
109334,98840
109356,98861
109320,98861
109373,98858
109320,98852
109383,98864
109387,98871
109410,98913
109434,98896
109480,98922
109500,98937
109526,98950
109556,98957
109608,98999
109670,98980
109685,99019
109723,99037
109803,99044
109802,99077
109877,99083
109905,99089
109949,99095
110034,99105
110072,99155
110110,99196
110208,99219
110255,99239
110343,99276
110396,99296
110494,99321
110566,99369
110619,99401
110678,99409
110737,99429
110797,99460
110813,99456
110839,99441
110868,99482
110862,99480
110856,99491
110871,99471
110846,99453
110837,99447
110798,99425
110784,99439
110764,99416
110726,99400
110703,99372
110670,99368
110628,99361
110590,99345
110585,99317
110538,99315
110533,99296
110477,99301
110440,99312
110414,99299
110429,99266
110400,99242
110393,99269
110383,99217
110415,99244
110376,99254
110365,99246
110399,99252
110416,99257
110420,99262
110415,99258
110423,99281
110477,99277
110480,99288
110508,99274
110477,99297
110526,99310
110553,99314
110580,99325
110620,99329
110674,99371
110674,99380
110694,99362
110766,99412
110792,99400
110801,99424
110851,99447
110878,99445
110900,99446
110950,99482
110981,99485
111051,99507
111083,99511
111100,99540
111157,99546
111171,99584
111220,99564
111261,99591
111270,99593
111339,99609
111364,99634
111371,99646
111424,99642
111465,99671
111493,99661
111508,99679
111548,99694
111565,99707
111569,99709
111637,99716
111676,99753
111705,99751
111731,99768
111755,99772
111797,99790
111815,99803
111848,99809
111874,99836
111927,99846
111931,99865
111989,99867
112023,99884
112061,99880
112092,99909
112090,99909
112139,99916
112173,99917
112172,99951
112238,99975
112269,99962
112303,100001
112311,99977
112347,100012
112379,100013
112442,100042
112428,100058
112480,100055
112518,100080
112506,100069
112527,100079
112562,100084
112558,100084
112562,100086
112516,100063
112497,100055
112399,100031
112286,99986
112146,99916
111973,99828
111767,99749
111566,99681
111296,99566
111091,99464
110867,99408
110667,99312
110461,99237
110297,99171
110155,99083
110028,99061
109896,99036
109777,98935
109646,98899
109543,98879
109414,98812
109340,98796
109252,98741
109187,98724
109108,98719
109064,98689
109029,98690
108984,98676
108961,98656
108935,98651
108914,98632
108931,98636
108940,98639
108954,98657
108938,98650
108928,98664
108979,98649
108966,98679
108997,98679
109036,98702
109081,98706
109046,98698
109133,98733
109117,98733
109154,98735
109177,98762
109212,98769
109242,98783
109240,98782
109326,98789
109314,98786
109352,98828
109373,98820
109416,98839
109429,98834
109456,98889
109510,98891
109528,98887
109609,98941
109626,98929
109656,98943
109722,98966
109769,98987
109840,99032
109900,99029
109912,99086
109978,99078
110003,99075
109986,99073
110029,99078
110039,99109
110076,99097
110044,99085
110064,99081
110048,99087
110035,99086
110021,99080
110012,99085
110005,99052
109972,99072
109972,99056
109951,99047
109957,99021
109892,99039
109875,99018
109868,99018
109855,98996
109841,98989
109820,98991
109831,99018
109855,98980
109812,99007
109827,98981
109818,98973
109809,98998
109823,98981
109848,98986
109823,98997
109832,98994
109854,99022
109863,99012
109864,99037
109924,99034
109912,99030
109964,99048
109960,99045
109998,99050
110033,99067
110022,99080
110094,99114
110116,99083
110122,99135
110147,99129
110181,99163
110213,99162
110234,99162
110258,99173
110283,99181
110348,99198
110365,99196
110394,99222
110438,99242
110434,99232
110481,99256
110493,99252
110522,99241
110569,99294
110562,99296
110602,99300
110626,99307
110659,99298
110679,99324
110720,99341
110712,99364
110764,99362
110775,99363
110803,99388
110812,99364
110847,99391
110863,99388
110902,99409
110926,99440
110933,99414
110946,99433
110979,99440
110982,99428
111029,99453
111052,99493
111070,99479
111075,99469
111097,99495
111130,99480
111164,99529
111172,99511
111198,99532
111238,99546
111246,99543
111232,99562
111249,99561
111302,99580
111319,99552
111332,99558
111343,99564
111330,99569
111326,99586
111273,99550
111240,99502
111127,99495
111020,99415
110856,99380
110738,99286
110558,99253
110385,99151
110224,99109
110006,99033
109915,98954
109762,98924
109622,98858
109499,98829
109385,98777
109259,98733
109140,98669
109049,98624
108970,98610
108823,98562
108742,98541
108699,98508
108608,98465
108564,98434
108536,98445
108458,98434
108438,98423
108443,98415
108403,98412
108441,98409
108428,98406
108429,98423
108455,98410
108433,98446
108466,98414
108499,98439
108484,98440
108505,98464
108532,98472
108585,98488
108621,98508
108637,98510
108662,98522
108727,98538
108729,98579
108743,98547
108800,98587
108824,98577
108852,98598
108908,98613
108955,98633
109019,98634
109009,98682
109098,98688
109113,98679
109157,98724
109205,98751
109275,98770
109359,98774
109371,98799
109443,98833
109456,98865
109529,98855
109589,98884
109578,98867
109624,98894
109621,98896
109636,98870
109603,98889
109633,98890
109621,98912
109605,98877
109596,98857
109552,98884
109560,98832
109553,98859
109530,98836
109508,98844
109479,98818
109487,98812
109458,98794
109439,98809
109457,98812
109407,98787
109434,98793
109398,98799
109411,98767
109406,98780
109390,98782
109405,98797
109395,98767
109418,98790
109402,98796
109427,98785
109438,98795
109443,98797
109452,98818
109483,98804
109497,98825
109501,98804
109530,98835
109568,98835
109593,98849
109624,98846
109648,98848
109674,98880
109703,98879
109732,98920
109741,98932
109786,98915
109787,98935
109850,98939
109864,98954
109886,98988
109914,98981
109966,98979
109977,99019
110017,99001
110049,99008
110076,99036
110086,99047
110118,99069
110171,99073
110199,99083
110257,99065
110252,99118
110285,99111
110314,99137
110373,99145
110409,99155
110417,99198
110458,99171
110508,99184
110552,99205
110589,99229
110597,99234
110666,99237
110685,99274
110696,99283
110778,99284
110793,99318
110794,99302
110875,99343
110904,99343
110920,99348
110961,99353
110991,99395
111054,99413
111075,99426
111121,99402
111133,99465
111196,99465
111243,99467
111252,99460
111294,99518
111304,99507
111354,99507
111387,99523
111413,99536
111408,99532
111413,99544
111439,99540
111422,99507
111368,99486
111310,99491
111222,99439
111070,99380
110916,99315
110742,99235
110513,99139
110337,99074
110142,98990
109942,98902
109777,98822
109655,98778
109489,98759
109397,98681
109231,98618
109078,98561
108992,98545
108856,98498
108786,98455
108661,98405
108637,98387
108530,98373
108449,98345
108416,98329
108355,98303
108333,98294
108284,98265
108291,98289
108278,98288
108245,98269
108260,98254
108243,98269
108243,98257
108251,98266
108262,98284
108276,98284
108305,98311
108314,98335
108347,98296
108371,98315
108385,98329
108395,98332
108441,98333
108473,98349
108488,98373
108508,98373
108532,98385
108509,98377
108557,98391
108560,98423
108599,98391
108589,98419
108615,98436
108657,98430
108658,98447
108691,98459
108735,98453
108755,98462
108817,98498
108854,98534
108904,98555
108925,98550
109003,98557
108995,98561
109054,98585
109054,98603
109072,98590
109073,98603
109065,98595
109084,98595
109098,98601
109080,98598
109092,98606
109073,98600
109060,98583
109062,98596
109012,98569
109000,98562
109019,98553
108974,98563
108953,98544
108938,98563
108935,98528
108920,98521
108909,98520
108905,98502
108909,98516
108874,98505
108880,98519
108863,98501
108873,98516
108849,98507
108887,98494
108862,98500
108892,98517
108893,98519
108899,98516
108897,98522
108948,98550
108968,98533
108942,98542
108993,98555
109012,98561
109044,98573
109055,98586
109074,98563
109107,98582
109105,98591
109155,98623
109193,98621
109168,98604
109192,98648
109257,98652
109249,98645
109289,98654
109282,98656
109342,98682
109367,98686
109370,98715
109415,98699
109430,98721
109457,98735
109471,98733
109512,98754
109555,98785
109566,98749
109562,98763
109609,98777
109659,98794
109635,98807
109667,98793
109682,98816
109728,98833
109769,98822
109769,98832
109793,98844
109830,98854
109868,98889
109875,98878
109895,98899
109924,98882
109923,98903
109976,98927
109984,98930
110003,98935
110032,98941
110071,98952
110071,98956
110109,98986
110112,98971
110157,98986
110164,99004
110190,99003
110202,99007
110232,98988
110235,99020
110242,99007
110233,99017
110216,99007
110206,98998
110148,98948
110099,98930
109994,98914
109849,98822
109747,98779
