116506,102594
116522,102605
116477,102588
116434,102547
116434,102507
116438,102546
116503,102584
116489,102580
116487,102564
116461,102535
116518,102582
116571,102627
116615,102630
116646,102635
116623,102621
116722,102678
116792,102691
116784,102714
116819,102698
116836,102689
116918,102754
116959,102796
117004,102801
117021,102813
116998,102796
117081,102827
117163,102865
117176,102874
117156,102861
117144,102843
117250,102905
117252,102941
117293,102907
117270,102910
117288,102901
117332,102955
117433,103010
117471,102992
117475,103011
117498,102989
117607,103065
117689,103114
117713,103131
117790,103155
117804,103112
117884,103175
118011,103223
118052,103241
118087,103235
118082,103213
118152,103280
118205,103298
118208,103295
118193,103300
118173,103236
118233,103319
118239,103328
118272,103340
118182,103282
118172,103277
118232,103312
118233,103332
118229,103304
118162,103281
118140,103252
118177,103293
118167,103313
118163,103263
118104,103236
118092,103228
118127,103293
118147,103274
118103,103256
118088,103233
118089,103244
118156,103276
118177,103316
118167,103283
118159,103278
118152,103259
118230,103321
118254,103334
118288,103360
118248,103319
118259,103315
118351,103372
118364,103354
118423,103395
118382,103341
118420,103371
118490,103427
118528,103478
118595,103468
118564,103406
118597,103464
118633,103501
118714,103526
118730,103534
118760,103490
118743,103536
118885,103579
118890,103578
118931,103607
118952,103576
118975,103581
119073,103667
119146,103679
119145,103682
119169,103681
119231,103689
119302,103737
119326,103753
119393,103810
119411,103742
119431,103773
119506,103853
119565,103851
119575,103837
119604,103813
119648,103864
119708,103938
119761,103950
119754,103908
119741,103940
119826,103933
119871,103982
119888,103991
119936,104017
119949,103959
119926,103990
120030,104039
120038,104049
120057,104061
120070,104055
120085,104034
120142,104086
120125,104122
120171,104115
120131,104044
120172,104096
120207,104146
120264,104134
120236,104118
120178,104104
120228,104124
120275,104164
120286,104164
120295,104142
120243,104098
120300,104151
120330,104182
120350,104197
120360,104163
120292,104142
120356,104196
120407,104210
120399,104232
120446,104216
120384,104200
120437,104242
120508,104253
120513,104268
120511,104271
120477,104240
120544,104262
120608,104325
120606,104303
120601,104289
120544,104211
120582,104239
120559,104281
120483,104212
120285,104095
120059,103989
119797,103869
119478,103777
119138,103641
118757,103450
118293,103259
118035,103185
117751,103092
117552,102987
117342,102907
117167,102788
117092,102801
116991,102775
116888,102716
116789,102677
116655,102620
116615,102629
116628,102617
116600,102612
116495,102583
116493,102514
116503,102576
116526,102588
116527,102569
116555,102609
116540,102545
116577,102592
116636,102632
116647,102636
116649,102644
116671,102609
116797,102684
116803,102710
116885,102744
116875,102732
116902,102739
117011,102784
117060,102816
117119,102848
117125,102819
117147,102773
117219,102882
117276,102919
117308,102925
117355,102920
117352,102887
117399,102954
117455,102994
117452,102962
117473,102963
117495,102927
117544,103014
117617,103041
117683,103039
117670,103057
117726,103044
117837,103122
117918,103161
117945,103184
118072,103180
118080,103188
118201,103299
118303,103319
118343,103334
118394,103313
118443,103337
118541,103432
118611,103442
118612,103439
118621,103420
118618,103369
118646,103476
118690,103488
118663,103483
118646,103467
118608,103438
118707,103470
118709,103473
118679,103481
118649,103440
118652,103440
118694,103464
118691,103469
118702,103487
118679,103429
118603,103454
118675,103457
118704,103465
118668,103451
118682,103455
118670,103414
118744,103506
118758,103492
118788,103492
118759,103441
118764,103448
118814,103552
118865,103538
118882,103528
118873,103528
118911,103541
119008,103582
118999,103614
119014,103605
119059,103572
119084,103602
119149,103660
119186,103664
119247,103682
119222,103617
119262,103667
119404,103743
119395,103758
119426,103757
119429,103750
119459,103790
119562,103810
119576,103835
119628,103850
119607,103815
119655,103862
119748,103917
119782,103898
119782,103928
119759,103879
119839,103916
119906,103955
119950,104014
119951,103984
119923,103972
120001,104003
120069,104049
120103,104067
120098,104084
120091,104046
120136,104071
120239,104129
120264,104109
120283,104101
120280,104084
120323,104116
120390,104176
120407,104184
120425,104176
120401,104156
120453,104195
120492,104192
120505,104248
120528,104191
120453,104134
120524,104217
120553,104259
120576,104268
120581,104264
120543,104190
120580,104249
120613,104291
120620,104272
120595,104262
120586,104262
120615,104276
120699,104312
120653,104290
120639,104286
120670,104233
120657,104278
120726,104339
120709,104325
120731,104303
120703,104300
120739,104295
120755,104360
120783,104335
120732,104339
120723,104285
120765,104333
120841,104378
120820,104357
120837,104358
120788,104329
120860,104355
120900,104391
120861,104376
120891,104406
120828,104330
120875,104410
120911,104424
120825,104367
120795,104372
120682,104277
120593,104252
120400,104156
120147,104028
119806,103898
119421,103694
119093,103579
118761,103452
118360,103291
118043,103163
117731,103039
117554,102975
117379,102958
117262,102873
117094,102793
116969,102705
116939,102711
116862,102721
116818,102677
116696,102629
116627,102549
116633,102581
116625,102614
116626,102585
116547,102529
116524,102556
116604,102609
116605,102618
116596,102624
116629,102585
116607,102554
116659,102624
116806,102687
116805,102690
116805,102636
116816,102644
116886,102708
116990,102772
116984,102769
117041,102764
117024,102727
117106,102801
117162,102850
117176,102854
117219,102847
117218,102826
117300,102885
117274,102909
117348,102939
117327,102873
117348,102913
117413,102938
117496,102982
117524,102964
117494,102955
117566,102972
117635,102998
117682,103066
117742,103089
117749,103062
117828,103048
117958,103183
118047,103232
118072,103213
118099,103201
118130,103204
118237,103275
118261,103292
118259,103281
118263,103250
118272,103242
118290,103296
118349,103327
118342,103280
118279,103240
118224,103217
118276,103254
118287,103306
118249,103261
118207,103241
118192,103236
118210,103269
118177,103269
118147,103260
118143,103219
118121,103167
118201,103240
118155,103210
118101,103220
118095,103188
118104,103192
118117,103235
118162,103261
118169,103225
118141,103224
118159,103220
118168,103256
118236,103257
118211,103267
118214,103240
118269,103268
118322,103305
118350,103311
118373,103351
118398,103298
118372,103333
118476,103391
118538,103390
118528,103389
118572,103357
118558,103369
118679,103423
118674,103459
118725,103485
118705,103434
118771,103488
118826,103517
118920,103537
118936,103558
118937,103501
118992,103571
119066,103595
119107,103622
119117,103614
119150,103602
119142,103635
119240,103714
119266,103656
119327,103708
119318,103672
119373,103719
119413,103746
119459,103787
119505,103792
119475,103721
119512,103782
119644,103836
119606,103847
119625,103852
119679,103814
119704,103851
119784,103921
119830,103912
119800,103916
119828,103896
119890,103929
119914,103956
119983,103975
119972,103986
119989,103943
120004,103955
120096,104027
120082,104008
120127,104040
120089,103980
120145,104038
120188,104067
120268,104081
120234,104103
120184,104060
120263,104050
120342,104132
120299,104138
120354,104108
120346,104086
120344,104141
120444,104154
120453,104183
120411,104156
120450,104136
120464,104204
120537,104235
120560,104207
120554,104249
120514,104173
120652,104256
120659,104296
120697,104274
120696,104287
120694,104243
120736,104263
120822,104342
120771,104299
120777,104298
120795,104258
120808,104310
120876,104361
120789,104330
120739,104283
120623,104186
120487,104177
120291,104068
119987,103937
119635,103756
119268,103601
118930,103481
118635,103325
118232,103234
117938,103061
117600,102950
117513,102919
117363,102872
117200,102770
117077,102718
116975,102644
116922,102661
116896,102655
116830,102604
116721,102564
116679,102547
116694,102596
116705,102624
116696,102559
116643,102538
116611,102540
116718,102611
116724,102626
116725,102603
116781,102597
116777,102588
116845,102675
116884,102713
116971,102696
116985,102701
116980,102682
117073,102793
117172,102782
117209,102787
117239,102798
117244,102791
117355,102866
117410,102887
117418,102905
117441,102897
117450,102892
117501,102949
117548,102993
117603,102983
117563,102974
117619,102970
117712,103022
117727,103026
117810,103051
117809,103066
117841,103051
117930,103117
118042,103184
118082,103178
118117,103187
118183,103215
118300,103268
118418,103322
118464,103316
118490,103323
118520,103354
118606,103404
118646,103399
118690,103436
118678,103377
118663,103383
118726,103441
118708,103434
118720,103444
118687,103388
118672,103380
118737,103453
118713,103424
118649,103413
118634,103376
118613,103369
118612,103409
118603,103392
118575,103350
118507,103300
118485,103347
118533,103362
118479,103339
118436,103312
118407,103278
118435,103301
118467,103346
118423,103351
118401,103341
118390,103278
118377,103303
118461,103352
118469,103325
118477,103332
118432,103298
118448,103279
118506,103355
118527,103347
118496,103363
118480,103321
118508,103337
118585,103413
118563,103395
118609,103410
118555,103370
118597,103373
118635,103432
118673,103469
118687,103463
118619,103405
118677,103423
118699,103476
118710,103490
118704,103453
118703,103432
118781,103453
118818,103511
118849,103503
118859,103499
118819,103490
118861,103499
118872,103536
118905,103550
118930,103540
118879,103491
118938,103533
118974,103584
118950,103578
119016,103550
118975,103522
119004,103558
119035,103602
119075,103590
119069,103584
119033,103565
119065,103592
119146,103632
119133,103645
119134,103623
119088,103564
119151,103597
119162,103650
119160,103671
119167,103642
119132,103579
119174,103625
119232,103645
119215,103667
119212,103633
119192,103602
119237,103666
119231,103670
119284,103692
119276,103686
119264,103639
119281,103670
119345,103705
119345,103699
119378,103689
119322,103697
119397,103723
119455,103765
119467,103751
119432,103747
119462,103697
119477,103762
119546,103777
119523,103797
119514,103764
119486,103721
119530,103770
119530,103772
119496,103769
119380,103698
119224,103600
119067,103587
118873,103510
118614,103363
118280,103244
117956,103071
117749,103002
117515,102947
117340,102835
117103,102741
116934,102676
116829,102626
116711,102586
116577,102561
116456,102498
116287,102404
116250,102413
116180,102381
116118,102372
116061,102346
115964,102256
115972,102294
115987,102324
115972,102293
115939,102256
115906,102242
115963,102298
116007,102329
116010,102305
116011,102286
115975,102274
116082,102350
116112,102374
116122,102348
116148,102328
116169,102339
116224,102407
116292,102429
116323,102450
116294,102433
116372,102443
116449,102520
116453,102518
116500,102504
116449,102525
116466,102474
116570,102553
116553,102551
116631,102578
116582,102539
116609,102542
116707,102613
116707,102642
116736,102636
116749,102625
116789,102626
116920,102694
116988,102710
117009,102758
117029,102753
117092,102749
117217,102837
117298,102829
117303,102881
117328,102862
117382,102871
117483,102932
117545,102956
117537,102939
117527,102925
117540,102883
117595,102964
117596,102984
117579,102960
117522,102920
117502,102924
117591,102917
117553,102911
117522,102928
117464,102884
117473,102903
117510,102928
117493,102917
117476,102879
117420,102855
117415,102848
117453,102896
117475,102895
117432,102895
117398,102850
117437,102879
117490,102931
117523,102919
117496,102928
117461,102887
117491,102939
117620,103000
117635,102985
117644,102978
117621,102940
117668,102974
117746,103051
117794,103053
117770,103033
117811,103019
117857,103071
117968,103136
118005,103105
118011,103154
118043,103103
118084,103175
118169,103198
118206,103222
118250,103172
118236,103175
118299,103231
118376,103284
118421,103275
118445,103287
118443,103255
118527,103322
118624,103346
118617,103386
118657,103378
118671,103372
118767,103428
118834,103473
118822,103449
118892,103464
118838,103429
118982,103520
118992,103544
119052,103521
119078,103534
119093,103504
119143,103585
119219,103585
119233,103629
119264,103624
119219,103586
119328,103624
119354,103643
119376,103702
119416,103676
119389,103665
119429,103705
119497,103751
119522,103758
119503,103715
119500,103716
119599,103768
119594,103793
119671,103822
119629,103822
119608,103774
119734,103820
119754,103840
119754,103829
119758,103832
119699,103793
119811,103880
119872,103902
119847,103873
119847,103860
119815,103868
119873,103911
119967,103952
119996,103920
119986,103910
119931,103876
120012,103930
120097,103970
120061,103978
120092,103955
120064,103939
120074,103974
120133,103963
120144,104000
120133,103971
120051,103885
120033,103953
120003,103892
119790,103815
119561,103732
119237,103561
118981,103440
118627,103322
118288,103173
117876,103011
117548,102884
117371,102856
117194,102721
117018,102684
116858,102598
116690,102515
116620,102524
116590,102491
116471,102476
116364,102432
116269,102356
116283,102385
116278,102371
116193,102351
116149,102358
116171,102329
116190,102355
116229,102377
116252,102376
116234,102340
116223,102348
116339,102409
116365,102420
116354,102434
116429,102444
116433,102463
116562,102486
116566,102507
116647,102530
116615,102527
116685,102560
116781,102616
116817,102613
116834,102634
116857,102627
116902,102616
116973,102702
117044,102734
117019,102741
117068,102720
117106,102707
117170,102743
117203,102792
117211,102746
117207,102787
117241,102787
117395,102854
117423,102866
117492,102896
117481,102890
117587,102924
117699,102964
117775,103001
117787,103024
117828,103045
117891,103072
118028,103120
118092,103134
118080,103132
118097,103110
118097,103122
118170,103190
118203,103152
118175,103149
118140,103140
118155,103119
118168,103197
118179,103189
118161,103147
118096,103085
118105,103127
118168,103152
118130,103135
118066,103132
117991,103096
118000,103049
118049,103121
118052,103128
118039,103102
117961,103053
117965,103046
117995,103093
117976,103091
117991,103077
117942,103048
117983,103046
117989,103113
118048,103102
118002,103076
117978,103072
118035,103130
118117,103108
118120,103135
118077,103137
118090,103123
118154,103109
118205,103178
118207,103186
118263,103195
118239,103162
118258,103198
118377,103250
118388,103256
118409,103223
118372,103217
118437,103249
118530,103327
118533,103288
118542,103308
118537,103276
118582,103332
118640,103351
118670,103363
118683,103338
118677,103281
118715,103335
118808,103426
118783,103422
118816,103403
118797,103386
118854,103419
118925,103486
118977,103500
118987,103469
118935,103413
119025,103472
119074,103528
119067,103527
119099,103519
119093,103466
119106,103539
119192,103540
119189,103559
119199,103527
119197,103517
119249,103566
119329,103593
119319,103604
119292,103589
119278,103574
119389,103646
119407,103643
119412,103650
119417,103609
119373,103617
119431,103682
119521,103669
119489,103661
119518,103680
119480,103644
119566,103714
119612,103773
119624,103714
119642,103727
119590,103684
119677,103744
119714,103749
119727,103756
119726,103739
119726,103739
119789,103784
119811,103801
119785,103806
119806,103773
119736,103752
119765,103788
119738,103776
119630,103727
119451,103598
119160,103450
118973,103426
118713,103306
118300,103127
117969,103011
117641,102869
117375,102769
117162,102684
116982,102622
116769,102524
116607,102454
116546,102446
116463,102428
116334,102347
116225,102273
116091,102238
116056,102258
116034,102213
115986,102215
115912,102160
115856,102135
115914,102188
115945,102202
115904,102181
115921,102194
115927,102155
115984,102213
116049,102225
116055,102239
116062,102195
116113,102216
116207,102310
116240,102319
116277,102334
116278,102329
116302,102347
116419,102416
116496,102475
116505,102449
116556,102426
116561,102449
116697,102492
116704,102530
116746,102530
116736,102501
116777,102518
116827,102581
116882,102593
116913,102602
116926,102616
116982,102630
117073,102691
117080,102707
117131,102717
117181,102708
117241,102744
117381,102804
117451,102819
117461,102844
117497,102809
117567,102848
117675,102941
117687,102945
117762,102919
117744,102935
117773,102938
117804,102959
117832,102981
117819,102951
117769,102924
117788,102931
117823,102963
117796,102922
117768,102906
117714,102885
117706,102903
117729,102936
117701,102888
117670,102886
117596,102843
117593,102867
117643,102879
117588,102878
117602,102864
117527,102831
117551,102835
117584,102881
117550,102886
117570,102856
117525,102825
117572,102834
117590,102890
117612,102888
117603,102869
117596,102846
117645,102898
117706,102902
117743,102909
117731,102909
117711,102899
117780,102941
117839,102994
117896,102982
117896,102990
117876,102939
117911,102988
118037,103027
118015,103015
118020,103044
118025,103021
118133,103084
118201,103099
118227,103119
118255,103118
118226,103084
118302,103174
118390,103177
118385,103179
118401,103189
118452,103134
118519,103213
118566,103257
118535,103250
118597,103284
118578,103185
118642,103249
118710,103338
118763,103337
118781,103311
118730,103293
118809,103341
118874,103398
118903,103355
118922,103364
118881,103384
118966,103416
119026,103465
119067,103471
119064,103459
119039,103400
119095,103464
119143,103471
119198,103519
119180,103500
119145,103457
119226,103551
119287,103525
119286,103538
119305,103551
119253,103545
119336,103583
119408,103588
119397,103611
119398,103600
119413,103607
119485,103651
119527,103685
119549,103664
119574,103652
119571,103633
119669,103698
119686,103727
119705,103760
119736,103735
119726,103706
119800,103748
119850,103783
119854,103779
119879,103793
119901,103737
119944,103788
119965,103829
119981,103823
119946,103804
119885,103745
119812,103761
119726,103708
119476,103607
119190,103450
118836,103255
118555,103164
118192,103063
117845,102898
117474,102743
117195,102610
117040,102570
116853,102486
116667,102443
116526,102386
116362,102294
116327,102318
116256,102300
116178,102226
116066,102192
115990,102139
115994,102179
115960,102208
115943,102176
115913,102149
115895,102097
115960,102168
115979,102171
116027,102183
116020,102150
116019,102162
116089,102248
116114,102218
116150,102252
116177,102222
116199,102229
116308,102292
116330,102353
116399,102347
116384,102331
116446,102373
116573,102425
116597,102424
116635,102458
116650,102441
116691,102474
116796,102549
116819,102509
116865,102538
116852,102528
116886,102537
116993,102620
116997,102606
117021,102629
117029,102619
117067,102645
117215,102718
117265,102681
117326,102693
117374,102706
117411,102715
117543,102822
117619,102845
117678,102906
117712,102880
117781,102918
117878,102961
117922,102978
117938,102972
117931,102964
118010,102955
118062,103008
118062,103034
118043,103027
118005,102942
117980,102992
118023,103007
117982,103027
117970,103006
117934,102919
117909,102953
117963,102964
117902,102939
117894,102910
117812,102864
117806,102897
117820,102941
117773,102914
117791,102878
117749,102883
117749,102866
117787,102903
117740,102905
117752,102882
117701,102825
117735,102909
117793,102936
117809,102928
117814,102930
117810,102918
117853,102956
117912,102988
117959,102981
117931,102979
117918,102943
118029,103000
118122,103031
118116,103013
118119,103017
118120,103008
118199,103075
118265,103140
118297,103155
118353,103150
118350,103105
118417,103137
118535,103189
118524,103224
118574,103225
118566,103164
118642,103260
118735,103284
118737,103291
118783,103294
118807,103257
118833,103293
118908,103370
118935,103350
118970,103363
118903,103367
119026,103433
119099,103448
119106,103406
119138,103449
119107,103413
119196,103456
119238,103513
119256,103503
119227,103469
119237,103487
119338,103526
119322,103553
119369,103550
119334,103533
119369,103489
119412,103538
119476,103600
119478,103607
119492,103562
119477,103563
119521,103594
119532,103640
119602,103650
119579,103613
119546,103597
119655,103685
119711,103690
119702,103690
119702,103679
119679,103625
119742,103692
119781,103675
119800,103753
119761,103708
119789,103701
119852,103746
119913,103773
119899,103767
119899,103751
119908,103750
119979,103779
119997,103813
120032,103799
120042,103813
120020,103780
120100,103827
120085,103861
120157,103847
120109,103808
120024,103819
120063,103838
119994,103803
119859,103724
119598,103587
119367,103463
119055,103382
118727,103248
118314,103051
117930,102906
117555,102733
117321,102679
117046,102600
116919,102530
116672,102414
116587,102378
116492,102355
116425,102311
116281,102275
116167,102194
116109,102130
116089,102170
116077,102182
116021,102102
115951,102086
115914,102110
116024,102159
115973,102163
116026,102134
116022,102119
116014,102158
116110,102226
116182,102228
116213,102235
116199,102233
116237,102232
116356,102318
116422,102322
116459,102352
116470,102330
116527,102380
116668,102440
116704,102413
116733,102458
116718,102440
116799,102472
116900,102542
116925,102558
116962,102590
116973,102530
117036,102578
117118,102617
117148,102639
117191,102613
117186,102584
117211,102637
117348,102730
117365,102716
117445,102744
117453,102694
117523,102738
117646,102849
117718,102894
117796,102885
117793,102866
117919,102939
118011,102979
118084,103014
118125,103019
118105,102984
118192,103051
118223,103071
118243,103056
118246,103084
118197,103003
118235,103028
118247,103067
118266,103099
118247,103066
118182,102976
118195,103042
118193,103047
118225,103039
118142,103022
118065,103002
118122,102976
118141,103037
118107,103006
118112,102981
117990,102943
118068,102977
118069,103013
118045,102994
118079,102987
117995,102950
118073,103023
118119,103025
118084,103019
118105,102971
118090,102976
118129,102995
118217,103080
118231,103054
118215,103055
118209,103016
118310,103070
118325,103123
118382,103110
118420,103098
118368,103081
118486,103166
118559,103183
118561,103219
118631,103204
118594,103204
118678,103230
118800,103290
118806,103261
118853,103294
118848,103250
118915,103372
118985,103368
119032,103369
119009,103372
119034,103365
119121,103447
119204,103425
119237,103444
119263,103491
119246,103425
119353,103463
119386,103540
119471,103530
119468,103530
119438,103487
119561,103591
119546,103599
119616,103631
119605,103585
119606,103573
119715,103634
119759,103682
119753,103675
119790,103693
119802,103641
119867,103704
119882,103692
119900,103748
119904,103719
119876,103699
119985,103736
120032,103774
120000,103778
120019,103759
120006,103734
120095,103832
120143,103847
120137,103800
120123,103821
120130,103780
120235,103885
120230,103873
120210,103871
120214,103827
120217,103841
120333,103891
120372,103920
120372,103912
120376,103911
120344,103876
120442,103972
120465,103955
120423,103970
120460,103925
120448,103910
120491,103986
120504,103982
120418,103945
120345,103903
120192,103817
120069,103762
119713,103641
119396,103469
118967,103281
118606,103113
118241,102997
117878,102854
117535,102731
117214,102562
116996,102482
116870,102473
116735,102413
116615,102357
116491,102272
116386,102236
116375,102274
116283,102235
116274,102208
116170,102172
116126,102155
116191,102206
116133,102166
116119,102167
116091,102120
116105,102141
116210,102219
116209,102189
116244,102241
116275,102191
116302,102211
116402,102297
116413,102296
116467,102339
116477,102308
116534,102322
116620,102389
116639,102418
116728,102398
116706,102383
116779,102407
116864,102492
116920,102525
116919,102497
116938,102463
116986,102525
117080,102574
117094,102571
117099,102578
117081,102554
117170,102618
117254,102641
117303,102669
117321,102646
117341,102631
117416,102684
117535,102751
117595,102742
117638,102788
117668,102781
117769,102848
117928,102898
117938,102942
118038,102981
118062,102909
118074,102970
118163,103051
118207,103048
118268,103033
118224,102975
118280,103024
118329,103087
118336,103038
118296,103041
118285,102992
118295,103038
118322,103079
118301,103035
118263,103042
118233,103002
118218,103019
118245,103028
118216,103011
118204,103018
118137,102923
118132,103006
118137,102996
118180,102987
118104,102945
118060,102942
118115,102968
118126,102998
118093,102991
118096,102985
118059,102956
118153,102981
118204,103013
118206,103017
118210,103027
118186,102982
118277,103032
118319,103052
118317,103062
118339,103017
118349,103006
118445,103107
118521,103121
118510,103115
118535,103135
118559,103117
118636,103179
118709,103223
118739,103235
118730,103203
118766,103224
118869,103282
118934,103303
118947,103325
118929,103297
118925,103279
119021,103378
119094,103381
119126,103369
119111,103360
119129,103378
119249,103417
119252,103472
119288,103477
119325,103445
119299,103441
119391,103498
119451,103505
119441,103506
119499,103530
119444,103505
119560,103565
119612,103568
119583,103597
119651,103593
119651,103538
119734,103647
119733,103648
119739,103615
119736,103619
119710,103628
119863,103691
119836,103664
119859,103690
119841,103692
119840,103688
119946,103741
119979,103711
119928,103730
119953,103702
119944,103681
119985,103718
120054,103767
120024,103745
120038,103714
120031,103720
120089,103780
120105,103788
120123,103757
120097,103751
120149,103732
120205,103839
120177,103835
120196,103828
120229,103786
120226,103797
120256,103865
120316,103896
120345,103864
120295,103801
120296,103865
120374,103915
120422,103919
120428,103918
120393,103863
120365,103893
120387,103887
120319,103840
120135,103765
119864,103636
119623,103529
119324,103422
118932,103259
118551,103085
118099,102871
117714,102703
117458,102677
117168,102560
116982,102485
116797,102382
116640,102344
116579,102309
116462,102283
116342,102219
116231,102143
116178,102120
116165,102171
116120,102161
116075,102088
115964,102069
115976,102089
116039,102117
116058,102109
116070,102136
116061,102065
116078,102122
116167,102167
116173,102177
116202,102173
116205,102142
116258,102178
116371,102279
116408,102297
116448,102266
116418,102239
116484,102287
116603,102346
116636,102361
116662,102373
116664,102323
116748,102375
116801,102431
116839,102428
116859,102428
116859,102389
116907,102458
116972,102500
117028,102510
117003,102497
117031,102507
117108,102538
117200,102578
117193,102563
117258,102598
117311,102616
117372,102624
117489,102752
117561,102726
117591,102750
117660,102725
117769,102817
117859,102875
117957,102863
117971,102891
117956,102870
118056,102914
118110,102949
118136,102940
118138,102941
118091,102913
118171,102985
118186,102980
118194,102975
118155,102953
118115,102894
118137,102937
118179,103000
118150,102944
118095,102933
118058,102889
118076,102932
118110,102960
118103,102886
118058,102905
118028,102887
118074,102924
118048,102945
118068,102929
118049,102897
118017,102884
118057,102916
118119,102963
118092,102957
118092,102917
118073,102881
118144,102958
118165,102991
118209,102988
118201,102966
118189,102937
118265,102998
118350,103034
118373,103027
118362,103030
118348,103014
118446,103097
118516,103130
118538,103116
118553,103079
118584,103123
118701,103200
118734,103186
118708,103187
118769,103179
118805,103186
118889,103264
118906,103259
118946,103276
118953,103273
118965,103264
119058,103323
119117,103359
119158,103347
119134,103353
119148,103323
119267,103407
119288,103421
119328,103413
119317,103416
119338,103427
119439,103505
119487,103497
119523,103504
119478,103486
119539,103511
119606,103550
119652,103561
119668,103579
119671,103552
119656,103545
119748,103610
119780,103629
119822,103642
119807,103619
119789,103584
119921,103667
119934,103678
119941,103686
119920,103658
119927,103630
120009,103718
120028,103715
120038,103727
120028,103692
120026,103719
120102,103735
120103,103757
120127,103766
120085,103715
120076,103699
120155,103762
120167,103777
120167,103771
120141,103708
120131,103719
120226,103791
120229,103814
120236,103792
120188,103768
120207,103780
120257,103834
120314,103841
120293,103817
120284,103792
120330,103805
120372,103883
120416,103886
120430,103886
120372,103829
120420,103864
120505,103922
120489,103934
120516,103938
120492,103868
120546,103919
120600,103958
120612,103974
120620,103937
120554,103915
120493,103899
120445,103896
120303,103823
120095,103711
119725,103494
119386,103408
119068,103257
118664,103113
118253,102953
117832,102729
117481,102617
117264,102588
117068,102505
116878,102385
116679,102305
116586,102269
116505,102259
116425,102258
116331,102183
116211,102132
116201,102146
116183,102145
116144,102133
116115,102112
116036,102011
116070,102074
116116,102126
116085,102087
116102,102095
116090,102058
116149,102096
116227,102168
116246,102180
116281,102170
116276,102161
116358,102198
116421,102245
116462,102283
116505,102268
116521,102248
116585,102287
116661,102333
116732,102339
116760,102363
116716,102317
116827,102395
116920,102451
116932,102480
116931,102439
116950,102444
117017,102465
117069,102497
117098,102503
117124,102500
117137,102486
117204,102555
117291,102607
117312,102628
117326,102616
117388,102613
117531,102678
117575,102715
117644,102755
117725,102776
117769,102768
117908,102814
117986,102882
118050,102877
118083,102900
118066,102859
118104,102929
118222,103001
118204,102945
118211,102925
118157,102910
118216,102967
118259,102995
118212,102954
118215,102921
118168,102890
118209,102920
118204,102940
118210,102937
118196,102946
118127,102867
118172,102928
118143,102938
118134,102904
118072,102895
118076,102890
118141,102926
118151,102919
118119,102925
118126,102884
118089,102904
118178,102949
118196,102926
118191,102936
118162,102904
118195,102896
118213,102984
118267,103011
118292,102983
118326,102964
118348,102956
118433,103075
118487,103039
118471,103048
118499,103013
118507,103043
118627,103088
118634,103126
118711,103145
118671,103134
118726,103135
118809,103172
118851,103197
118883,103241
118875,103195
118931,103216
119021,103271
119048,103313
119070,103311
119073,103269
119127,103304
119231,103359
119251,103357
119278,103362
119297,103357
119313,103366
119381,103417
119439,103460
119470,103451
119441,103400
119460,103447
119557,103517
119563,103490
119551,103506
119544,103491
119558,103483
119641,103535
119678,103570
119688,103557
119624,103537
119714,103569
119781,103589
119749,103601
119776,103604
119752,103537
119748,103541
119851,103624
119849,103640
119864,103608
119777,103557
119820,103575
119871,103622
119870,103647
119875,103626
119813,103587
119852,103605
119895,103634
119923,103647
119927,103650
119883,103617
119891,103647
119978,103664
119962,103658
119990,103698
119947,103660
119939,103670
120031,103702
120021,103735
120059,103719
120003,103643
120075,103719
120121,103743
120125,103757
120099,103748
120125,103698
120140,103745
120182,103777
120191,103778
120232,103785
120191,103739
120252,103765
120319,103825
120349,103827
120319,103833
120325,103771
120397,103833
120446,103872
120429,103888
120467,103900
120408,103803
120431,103895
120429,103887
120371,103835
120255,103800
120058,103664
119865,103625
119607,103515
119247,103346
118845,103177
118434,102966
118075,102860
117774,102749
117467,102624
117233,102571
117010,102437
116893,102399
116751,102345
116646,102320
116487,102223
116380,102183
116358,102158
116290,102139
116179,102123
116117,102074
116067,102055
116061,102083
116072,102103
116055,102066
116074,102040
115997,102021
116039,102092
116071,102109
116136,102110
116138,102075
116115,102094
116227,102164
116299,102193
116292,102178
116273,102162
116312,102167
116400,102214
116449,102228
116472,102231
116507,102238
116499,102244
116600,102298
116647,102373
116694,102308
116693,102304
116690,102313
116730,102365
116805,102393
116825,102405
116847,102412
116827,102392
116921,102427
116936,102469
116991,102455
117025,102439
117026,102471
117145,102525
117178,102533
117220,102592
117308,102571
117324,102565
117446,102647
117499,102660
117561,102699
117531,102676
117597,102700
117658,102776
117724,102784
117736,102760
117708,102747
117719,102721
117786,102785
117796,102800
117763,102783
117740,102771
117768,102719
117788,102747
117784,102754
117756,102773
117704,102716
117723,102731
117748,102808
117757,102789
117743,102736
117647,102716
117660,102712
117720,102739
117670,102733
117674,102724
117653,102674
117671,102713
117700,102742
117724,102754
117699,102774
117702,102690
117701,102728
117764,102782
117838,102816
117805,102762
117787,102737
117862,102793
117920,102832
117973,102855
117962,102868
118021,102842
118023,102850
118099,102918
118195,102924
118234,102943
118195,102893
118265,102939
118322,102981
118419,103035
118439,102993
118421,102998
118496,103034
118587,103076
118649,103086
118646,103089
118666,103097
118701,103116
118819,103197
118871,103194
118894,103228
118909,103194
118981,103217
119048,103271
119055,103280
119123,103296
119075,103291
119190,103323
119256,103325
119278,103335
119277,103367
119286,103336
119338,103367
119388,103422
119415,103431
119415,103426
119458,103410
119524,103447
119608,103512
119613,103487
119635,103509
119581,103427
119710,103506
119756,103571
119781,103585
119833,103551
119796,103561
119852,103566
119925,103635
119935,103641
119982,103624
119935,103590
119993,103666
120028,103666
120071,103673
120049,103678
120020,103651
120087,103680
120148,103693
120171,103757
120152,103721
120165,103681
120204,103722
120243,103786
120260,103782
120263,103741
120230,103728
120311,103796
120365,103846
120393,103821
120366,103762
120356,103788
120468,103843
120438,103823
120450,103866
120510,103860
120481,103808
120550,103893
120629,103908
120574,103883
120626,103875
120614,103859
120673,103922
120687,103947
120727,103964
120740,103915
120679,103883
120784,103961
120779,103961
120760,103973
120694,103916
120571,103858
120522,103826
120365,103735
120047,103642
119708,103474
119298,103262
118947,103182
118605,103034
118210,102825
117825,102694
117525,102561
117289,102506
117122,102486
116954,102395
116835,102329
116675,102260
116682,102249
116571,102238
116502,102194
116442,102164
116338,102112
116385,102157
116355,102145
116346,102148
116294,102120
116298,102068
116322,102140
116362,102185
116354,102153
116380,102154
116393,102138
116506,102212
116559,102236
116572,102234
116591,102213
116594,102233
116718,102305
116763,102349
116793,102361
116822,102326
116845,102326
116932,102385
116983,102426
117015,102444
117037,102433
117076,102427
117162,102492
117192,102496
117219,102512
117218,102489
117241,102508
117355,102565
117400,102590
117436,102598
117437,102572
117508,102559
117578,102626
117654,102672
117709,102699
117733,102692
117787,102729
117945,102804
118002,102817
118028,102840
118049,102844
118119,102855
118196,102911
118236,102925
118269,102933
118232,102899
118253,102909
118297,102967
118326,102967
118286,102914
118236,102861
118196,102907
118249,102944
118237,102934
118195,102886
118140,102844
118116,102861
118119,102881
118096,102870
118035,102830
117992,102801
117980,102826
117969,102830
117943,102808
117888,102783
117854,102730
117859,102749
117865,102792
117840,102779
117832,102779
117813,102771
117829,102745
117856,102798
117884,102797
117827,102770
117822,102747
117836,102745
117899,102822
117928,102847
117904,102829
117914,102780
117912,102788
118011,102852
118036,102834
118029,102843
118010,102844
118047,102854
118097,102887
118086,102887
118178,102921
118175,102866
118175,102902
118260,102957
118284,102964
118335,102975
118270,102933
118397,103013
118475,103034
118457,103040
118494,103024
118500,102992
118548,103050
118635,103105
118639,103108
118655,103108
118634,103085
118738,103104
118749,103177
118789,103159
118774,103135
118742,103150
118819,103168
118924,103230
118912,103203
118962,103221
118914,103199
119005,103267
119046,103296
119082,103291
119075,103267
119095,103274
119156,103305
119189,103349
119268,103344
119236,103336
119198,103305
119282,103374
119326,103407
119381,103420
119362,103385
119349,103369
119374,103417
119489,103461
119520,103445
119461,103434
119444,103403
119514,103462
119537,103483
119563,103491
119553,103467
119506,103396
119611,103500
119649,103539
119608,103524
119643,103495
119610,103461
119698,103531
119712,103524
119699,103549
119694,103541
119717,103489
119753,103570
119823,103608
119810,103584
119799,103569
119805,103526
119844,103610
119920,103661
119930,103615
119936,103623
119886,103589
119964,103672
120027,103716
120059,103682
120006,103660
120057,103658
120090,103694
120137,103747
120086,103698
120052,103647
119958,103645
119933,103631
119744,103566
119558,103456
119260,103314
118893,103140
118602,103056
118274,102924
117951,102780
117658,102650
117354,102547
117236,102553
117124,102472
116948,102411
116788,102301
116695,102262
116611,102251
116542,102203
116417,102199
116328,102132
116274,102104
116293,102107
116214,102114
116214,102118
116187,102041
116172,102072
116234,102103
116234,102107
116250,102107
116221,102054
116232,102104
116328,102179
116365,102170
116387,102162
116385,102157
116444,102155
116518,102234
116558,102253
116598,102274
116626,102299
116668,102305
116786,102370
116821,102324
116855,102366
116847,102357
116913,102398
116989,102447
117013,102442
117067,102464
117061,102462
117121,102462
117199,102524
117237,102547
117275,102574
117277,102511
117346,102534
117440,102623
117498,102657
117551,102666
117574,102642
117646,102679
117764,102764
117834,102782
117851,102787
117891,102764
117924,102809
118022,102873
118082,102879
118134,102880
118071,102840
118149,102867
118152,102916
118147,102916
118121,102891
118124,102862
118106,102890
118144,102914
118140,102936
118116,102901
118060,102849
118060,102848
118084,102886
118067,102875
118023,102839
117964,102810
117959,102850
118003,102861
117987,102862
117983,102817
117893,102808
117964,102834
117979,102856
117995,102859
117981,102822
117942,102766
117988,102831
118045,102881
118039,102860
118050,102849
118066,102837
118108,102879
118142,102899
118188,102914
118239,102928
118192,102901
118276,102950
118350,102998
118362,102990
118407,102970
118396,102922
118501,102998
118540,103063
118572,103083
118592,103063
118616,103044
118716,103157
118747,103137
118790,103162
118838,103170
118812,103119
118930,103206
119009,103257
119027,103255
119056,103243
119064,103230
119156,103315
119217,103347
119270,103369
119271,103335
119272,103369
119392,103423
119481,103454
119473,103429
119516,103455
119508,103432
119589,103490
119684,103524
119702,103524
119693,103499
119741,103502
119807,103562
119850,103612
119886,103629
119891,103604
119926,103600
120022,103670
120075,103671
120029,103660
120059,103671
120112,103631
120185,103711
120204,103762
120221,103738
120238,103722
120253,103759
120361,103790
120370,103788
120398,103817
120403,103756
120397,103763
120450,103829
120523,103873
120529,103869
120489,103838
120533,103848
120597,103879
120615,103918
120634,103930
120621,103883
120613,103888
120718,103951
120731,103929
120738,103936
120735,103943
120733,103934
120793,103981
120824,103977
120853,103996
120854,103960
120858,103942
120940,104051
120918,104045
120940,104053
120960,104011
120936,104027
121028,104097
121060,104096
121070,104103
121078,104042
121024,104086
121084,104110
121088,104148
121130,104109
121092,104048
121009,104029
120999,104048
120890,103969
120624,103879
120319,103724
120016,103601
119707,103477
119332,103284
118971,103177
118601,103029
118270,102862
118055,102835
117782,102710
117617,102652
117438,102540
117340,102524
117281,102511
117198,102481
117116,102449
117027,102407
117000,102437
117037,102411
116993,102405
116952,102370
116904,102320
116963,102369
117032,102414
117035,102384
117083,102425
117039,102406
117102,102434
117173,102474
117216,102494
117272,102505
117292,102502
117382,102517
117489,102582
117495,102616
117550,102627
117584,102617
117683,102684
117752,102735
117792,102716
117885,102751
117922,102728
117990,102767
118079,102848
118111,102865
118164,102881
118187,102827
118283,102907
118343,102933
118421,102945
118438,102990
118479,102987
118581,103019
118683,103074
118760,103114
118822,103116
118850,103130
118988,103200
119029,103240
119149,103290
119213,103311
119199,103255
119342,103338
119393,103384
119449,103368
119454,103372
119418,103406
119519,103421
119591,103453
119573,103427
119559,103428
119538,103398
119586,103462
119589,103456
119577,103435
119535,103419
119522,103365
119522,103427
119537,103442
119522,103389
119470,103374
119431,103356
119440,103368
119424,103378
119416,103400
119365,103345
119334,103324
119394,103381
119378,103367
119393,103335
119371,103354
119346,103304
119374,103335
119419,103386
119430,103326
119382,103315
119365,103325
119436,103381
119503,103411
119499,103421
119515,103397
119521,103359
119556,103419
119610,103451
119641,103459
119641,103460
119679,103463
119758,103478
119794,103512
119788,103530
119813,103508
119825,103516
119909,103567
119972,103582
119955,103608
119981,103580
120008,103594
120115,103661
120125,103659
120205,103714
120159,103634
120188,103668
120297,103727
120314,103728
120358,103732
120324,103720
120349,103718
120441,103808
120483,103821
120514,103795
120457,103784
120495,103783
120615,103860
120655,103874
120608,103877
120607,103881
120613,103826
120719,103918
120755,103915
120749,103934
120743,103880
120736,103908
120826,103952
120842,103974
120851,103987
120847,103900
120843,103942
120922,104003
120954,104012
120958,104050
120947,103975
120960,104003
121046,104046
120987,104054
121037,104040
121010,104013
121031,104004
121077,104088
121121,104060
121114,104101
121074,104033
121097,104070
121198,104114
121195,104078
121191,104097
121165,104084
121176,104133
121238,104165
121244,104123
121275,104119
121229,104087
121290,104143
121326,104166
121328,104203
121359,104144
121323,104107
121384,104163
121389,104210
121402,104211
121390,104199
121314,104142
121281,104150
121307,104128
121139,104093
121001,103973
120694,103800
120437,103718
120118,103613
119708,103442
119389,103289
118981,103130
118702,103032
118468,102960
118202,102810
117985,102744
117762,102643
117638,102606
117581,102614
117515,102574
117394,102530
117309,102491
117313,102472
117313,102512
117295,102474
117253,102493
117200,102437
117246,102485
117316,102491
117284,102465
117300,102497
117306,102487
117383,102539
117465,102571
117482,102587
117540,102550
117540,102556
117656,102638
117716,102664
117765,102712
117832,102717
117829,102705
117973,102752
118030,102787
118109,102834
118158,102850
118155,102836
118262,102894
118312,102905
118393,102940
118419,102957
118441,102926
118517,103012
118631,103020
118674,103022
118655,103050
118715,103039
118857,103116
118916,103135
119003,103190
119045,103204
119077,103219
119223,103263
119311,103295
119359,103303
119397,103341
119442,103322
119595,103386
119635,103454
119694,103447
119698,103428
119706,103423
119784,103505
119823,103507
119805,103482
119787,103473
119768,103471
119799,103495
119805,103458
119783,103485
119725,103437
119686,103432
119690,103493
119723,103493
119666,103453
119643,103431
119605,103372
119582,103416
119570,103429
119566,103387
119492,103336
119460,103322
119510,103360
119519,103358
119428,103344
119426,103317
119377,103303
119409,103338
119439,103354
119439,103331
119376,103290
119336,103293
119420,103356
119453,103371
119424,103370
119434,103347
119418,103326
119483,103359
119504,103387
119515,103379
119495,103319
119529,103322
119575,103421
119636,103408
119650,103434
119632,103399
119666,103396
119710,103463
119744,103475
119742,103487
119733,103471
119758,103463
119846,103547
119890,103536
119908,103503
119860,103511
119903,103531
119966,103566
119999,103549
120006,103593
120005,103584
120049,103589
120163,103646
120171,103638
120168,103628
120201,103624
120251,103669
120307,103705
120321,103727
120393,103743
120349,103689
120417,103732
120471,103795
120510,103796
120586,103790
120548,103781
120585,103817
120629,103833
120663,103848
120647,103860
120655,103854
120696,103853
120767,103895
120793,103891
120765,103895
120760,103879
120815,103905
120860,103959
120865,103987
120878,103928
120832,103889
120891,103939
120956,103951
120958,103962
120940,103963
120916,103935
120966,103963
121009,104002
121003,104007
120993,103967
120984,103960
121027,104005
121092,104015
121049,104017
121093,104043
121050,103994
121121,104013
121174,104043
121146,104090
121192,104063
121149,103991
121160,104084
121224,104118
121222,104085
121180,104051
121117,104002
121074,104006
121035,103970
120853,103902
120640,103794
120283,103595
119971,103504
119635,103380
119239,103221
118866,103056
118502,102849
118197,102805
117966,102748
117721,102619
117525,102541
117328,102438
117254,102414
117166,102431
117118,102383
116996,102305
116917,102275
116895,102282
116837,102297
116809,102293
116801,102243
116684,102226
116759,102259
116752,102262
116745,102247
116732,102252
116736,102222
116797,102287
116843,102287
116846,102280
116841,102287
116837,102268
116914,102312
117000,102371
117026,102362
117067,102359
117055,102331
117168,102437
117228,102462
117295,102453
117318,102496
117340,102459
117419,102537
117488,102559
117506,102556
117568,102525
117587,102546
117659,102615
117727,102648
117743,102634
117766,102635
117814,102603
117960,102726
118005,102766
118079,102770
118078,102781
118143,102809
118287,102857
118363,102907
118483,102946
118495,102914
118530,102952
118678,103028
118752,103043
118809,103077
118814,103009
118833,103048
118911,103120
118915,103131
118945,103111
118936,103082
118929,103032
118991,103121
118939,103113
118952,103106
118917,103057
118889,103067
118943,103105
118938,103090
118876,103080
118850,103025
118809,103072
118847,103092
118862,103068
118819,103054
118756,103010
118791,103043
118843,103043
118823,103061
118832,103031
118792,102962
118759,103000
118864,103052
118821,103059
118873,103058
118847,103032
118903,103035
118926,103118
118957,103121
118972,103108
118942,103054
118981,103065
119081,103131
119089,103153
119112,103169
119140,103125
119143,103153
119257,103213
119277,103252
119291,103241
119268,103206
119343,103268
119436,103295
119427,103347
119449,103335
119483,103293
119524,103320
119597,103369
119626,103398
119624,103418
119619,103371
119698,103392
119775,103466
119771,103466
119837,103454
119780,103430
119828,103440
119896,103528
119887,103540
119942,103532
119929,103499
119956,103523
120029,103552
120047,103596
120073,103572
119988,103528
120059,103568
120152,103617
120144,103608
120163,103583
120090,103549
120189,103639
120232,103646
120203,103637
120233,103673
120220,103587
120276,103600
120311,103670
120355,103684
120324,103690
120270,103623
120328,103713
120350,103724
120416,103755
120412,103713
120403,103690
120442,103734
120469,103750
120503,103756
120500,103754
120471,103692
120526,103774
120591,103806
120607,103825
120605,103779
120560,103760
120623,103806
120700,103884
120735,103835
120734,103811
120683,103816
120786,103866
120841,103923
120822,103904
120835,103872
120818,103866
120923,103932
120956,103956
120939,103963
120902,103941
120845,103878
120812,103898
120755,103842
120506,103750
120280,103620
119897,103462
119631,103367
119295,103237
118989,103108
118619,102916
118237,102774
117974,102681
117717,102636
117545,102519
117364,102417
117128,102372
117104,102336
117039,102343
116941,102288
116863,102236
116775,102167
116752,102188
116768,102224
116726,102188
116671,102169
116631,102134
116705,102198
116713,102210
116706,102207
116738,102187
116686,102178
116794,102265
116840,102267
116823,102277
116868,102243
116905,102249
116989,102291
117024,102337
117065,102375
117093,102368
117145,102383
117227,102439
117282,102438
117317,102471
117340,102472
117357,102459
117461,102521
117565,102533
117549,102543
117579,102517
117565,102555
117737,102640
117735,102646
117782,102644
117791,102614
117840,102654
117982,102720
117975,102729
118044,102758
118080,102776
118160,102791
118294,102851
118342,102889
118425,102923
118425,102886
118532,102922
118649,102985
118668,103010
118720,103009
118670,102971
118705,102980
118757,103051
118822,103071
118800,103037
118743,103027
118784,103018
118828,103043
118831,103064
118796,103053
118761,103005
118760,103019
118794,103041
118765,103018
118727,103016
118653,102977
118682,102971
118712,103004
118659,102998
118634,102992
118572,102932
118564,102941
118586,102976
118594,103010
118603,102950
118510,102924
118533,102956
118604,102958
118552,102971
118561,102984
118548,102939
118540,102977
118575,102998
118600,102974
118611,102993
118555,102919
118615,102961
118652,103013
118700,103027
118697,103000
118655,102997
118718,103040
118787,103089
118797,103063
118807,103041
118768,103029
118817,103057
118880,103115
118896,103110
118903,103099
118890,103072
118947,103111
119022,103167
119036,103141
119052,103177
119062,103116
119091,103179
119157,103224
119194,103213
119200,103176
119161,103157
119229,103238
119310,103255
119299,103251
119341,103273
119321,103254
119367,103275
119434,103316
119400,103306
119433,103304
119424,103279
119407,103344
119533,103364
119510,103366
119519,103345
119525,103327
119563,103362
119633,103349
119625,103389
119579,103367
119580,103332
119653,103375
119655,103425
119663,103391
119678,103363
119630,103375
119712,103402
119755,103411
119752,103435
119734,103390
119700,103396
119749,103424
119809,103448
119798,103479
119801,103460
119768,103394
119849,103470
119846,103474
119864,103484
119867,103465
119863,103426
119886,103477
119898,103485
119917,103523
119917,103451
119830,103436
119926,103509
119902,103502
119847,103446
119683,103385
119560,103291
119416,103282
119200,103183
118925,103012
118601,102888
118249,102770
117982,102671
117710,102578
117461,102463
117221,102314
117014,102271
116951,102272
116854,102224
116686,102154
116566,102088
116455,102043
116416,102084
116370,102062
116337,102008
116270,101951
116193,101934
116263,101975
116253,102001
116250,101997
116225,101942
116202,101938
116308,102025
116344,102006
116345,102022
116341,102004
116388,102032
116489,102090
116497,102141
116568,102134
116602,102121
116612,102100
116739,102171
116817,102212
116861,102202
116855,102224
116945,102268
117055,102300
117089,102360
117161,102345
117166,102304
117196,102380
117319,102443
117360,102426
117361,102428
117365,102432
117451,102436
117483,102524
117542,102534
117550,102525
117574,102528
117639,102523
117713,102614
117793,102624
117841,102615
117819,102571
117909,102657
117958,102691
118034,102727
118018,102727
118028,102699
118052,102736
118110,102737
118069,102750
118066,102717
118004,102701
118019,102709
118106,102755
118044,102718
118051,102719
117957,102630
117999,102706
118016,102724
117974,102687
117934,102675
117871,102637
117899,102617
117918,102627
117893,102616
117846,102646
117822,102592
117792,102624
117872,102679
117861,102630
117838,102647
117811,102557
117802,102577
117895,102667
117884,102675
117903,102624
117862,102629
117878,102636
117977,102703
117998,102672
117992,102691
117954,102642
118042,102695
118127,102746
118168,102762
118202,102758
118167,102730
118239,102761
118315,102834
118359,102853
118454,102855
118407,102826
118539,102895
118604,102952
118643,102923
118658,102953
118682,102929
118758,102993
118809,103042
118858,103073
118896,103053
118956,103020
119025,103108
119114,103152
119123,103121
119181,103158
119194,103144
119228,103190
119330,103228
119392,103246
119367,103225
119395,103208
119460,103298
119506,103334
119534,103311
119583,103313
119605,103314
119667,103374
119735,103409
119777,103404
119782,103400
119735,103382
119845,103400
119880,103412
119887,103446
119906,103443
119910,103443
119940,103471
119988,103501
120026,103528
120035,103507
120020,103474
120101,103538
120112,103574
120143,103572
120185,103523
120200,103546
120248,103585
120319,103620
120317,103635
120326,103626
120338,103627
120399,103677
120435,103663
120494,103686
120473,103657
120483,103673
120569,103701
120606,103770
120622,103755
120616,103741
120596,103732
120727,103842
120759,103796
120685,103801
120661,103750
120614,103715
120626,103765
120535,103701
120342,103593
120077,103471
119786,103337
119508,103255
119162,103120
118816,102960
118461,102812
118113,102643
117866,102586
117617,102488
117461,102444
117252,102352
117126,102312
117067,102268
116990,102239
116867,102180
116780,102169
116738,102161
116784,102168
116724,102181
116699,102131
116651,102090
116665,102119
116751,102168
116780,102175
116780,102180
116782,102146
116804,102169
116879,102238
116957,102246
116953,102280
116988,102248
117055,102255
117156,102337
117217,102374
117300,102384
117319,102367
117390,102398
117492,102471
117542,102473
117576,102542
117610,102518
117676,102567
117829,102590
117871,102616
