ir,red
107247,97715
107277,97712
107247,97723
107304,97713
107302,97717
107304,97742
107316,97751
107327,97749
107321,97733
107339,97735
107285,97722
107296,97743
107334,97742
107318,97709
107319,97713
107318,97729
107300,97708
107333,97745
107310,97714
107307,97735
107334,97721
107344,97754
107330,97746
107382,97731
107384,97751
107471,97782
107506,97807
107520,97784
107520,97826
107602,97832
107616,97842
107667,97853
107686,97866
107735,97903
107750,97885
107768,97908
107863,97902
107844,97928
107890,97942
107934,97944
107952,97970
108005,97989
108043,98030
108088,98025
108092,98020
108141,98030
108175,98028
108232,98033
108220,98081
108266,98111
108318,98106
108351,98130
108338,98112
108405,98140
108423,98146
108464,98165
108486,98169
108525,98192
108572,98184
108561,98170
108600,98236
108603,98226
108645,98227
108671,98227
108704,98241
108680,98253
108734,98247
108788,98283
108796,98280
108783,98284
108827,98297
108863,98281
108870,98321
108869,98328
108892,98283
108883,98323
108945,98341
108942,98361
108975,98356
108974,98326
108992,98364
109005,98356
109032,98337
109034,98372
109071,98381
109076,98356
109090,98380
109083,98389
109127,98392
109160,98426
109166,98411
109187,98423
109205,98421
109244,98428
109273,98450
109308,98455
109304,98470
109349,98471
109372,98491
109410,98478
109386,98506
109437,98503
109470,98520
109460,98508
109484,98541
109492,98535
109457,98494
109455,98515
109398,98473
109304,98470
109197,98400
109038,98344
108898,98261
108702,98176
108536,98122
108338,98044
108177,97991
107987,97893
107850,97820
107658,97755
107494,97705
107316,97668
106675,97400
106566,97341
106456,97322
106383,97311
106298,97277
106259,97250
106188,97224
106153,97217
106105,97233
106089,97198
106076,97192
106052,97206
106049,97191
106037,97190
106017,97199
106041,97204
106026,97188
106050,97209
106046,97212
106057,97220
106068,97236
106070,97223
106116,97208
106144,97247
106107,97242
106150,97243
106147,97251
106146,97248
106145,97251
106156,97239
106189,97266
106175,97259
106205,97278
106198,97275
106237,97290
106260,97286
106256,97291
106301,97306
106355,97347
106377,97334
106394,97360
106464,97376
106495,97430
106519,97402
106597,97421
106624,97452
106647,97456
106726,97477
106734,97486
106745,97484
106806,97477
106765,97521
106800,97523
106846,97515
106826,97526
106874,97523
106846,97551
106845,97528
106846,97520
106823,97535
106846,97510
106847,97518
106850,97510
106840,97517
106830,97520
106855,97520
106857,97529
106840,97525
106849,97526
106848,97513
106829,97524
106853,97511
106842,97536
106862,97519
106860,97521
106894,97542
106892,97543
106898,97534
106944,97565
106943,97562
106961,97542
106992,97565
106989,97582
107021,97579
107058,97617
107072,97612
107090,97617
107126,97616
107163,97634
107178,97641
107203,97657
107247,97679
107268,97656
107310,97718
107344,97706
107327,97727
107377,97736
107407,97761
107460,97737
107484,97771
107492,97782
107562,97838
107581,97819
107608,97831
107636,97841
107673,97863
107669,97850
107722,97852
107745,97882
107766,97893
107819,97888
107840,97913
107869,97923
107897,97919
107900,97921
107937,97941
107964,97957
107991,97956
108030,97956
108049,97970
108063,97982
108072,97979
108112,98024
108097,98018
108118,98002
108147,98004
108147,98024
108192,98033
108211,98027
108217,98041
108212,98038
108247,98051
108225,98049
108265,98094
108290,98071
108294,98073
108311,98104
108342,98082
108369,98105
108401,98108
108388,98123
108415,98120
108452,98141
108450,98124
108497,98152
108509,98181
108512,98172
108548,98172
108573,98188
108596,98210
108576,98195
108640,98204
108660,98218
108658,98208
108698,98233
108659,98228
108640,98212
108578,98185
108551,98160
108453,98118
108324,98054
108223,98029
108094,97948
107926,97882
107825,97845
107640,97789
107476,97733
107304,97634
107181,97599
107006,97545
106842,97473
106733,97437
106610,97365
106489,97324
106362,97268
106257,97258
106155,97181
106066,97174
106005,97145
105916,97127
105883,97117
105821,97100
105808,97074
105766,97075
105728,97065
105725,97091
105701,97043
105721,97039
105688,97066
105718,97073
105733,97068
105737,97082
105767,97087
105762,97105
105756,97106
105816,97103
105804,97103
105819,97104
105854,97100
105863,97109
105878,97105
105925,97137
105920,97150
105958,97156
105941,97153
105962,97172
105978,97171
106001,97206
106029,97202
106052,97216
106074,97196
106097,97228
106147,97234
106187,97260
106240,97276
106264,97293
106325,97329
106375,97318
106438,97364
106494,97369
106511,97381
106567,97406
106577,97415
106629,97431
106677,97460
106691,97485
106715,97455
106694,97461
106721,97446
106732,97468
106741,97487
106762,97469
106783,97462
106770,97484
106767,97465
106790,97467
106776,97495
106778,97476
106777,97481
106759,97487
106798,97507
106794,97489
106824,97492
106769,97481
106806,97485
106839,97493
106813,97490
106835,97503
106852,97489
106844,97512
106901,97529
106901,97520
106893,97534
106924,97554
106944,97532
106989,97552
107011,97579
107053,97574
107078,97564
107104,97605
107103,97610
107157,97608
107195,97631
107212,97648
107249,97668
107275,97672
107311,97700
107376,97732
107375,97719
107423,97727
107463,97747
107506,97772
107538,97767
107567,97786
107628,97817
107652,97829
107666,97818
107710,97840
107735,97875
107772,97875
107822,97879
107830,97893
107887,97915
107886,97901
107955,97935
107962,97954
108018,97958
108032,97973
108074,97966
108081,97979
108125,98011
108148,98010
108177,98026
108216,98051
108247,98031
108277,98072
108298,98055
108324,98072
108342,98082
108375,98106
108378,98115
108407,98105
108455,98119
108455,98141
108502,98119
108505,98152
108516,98146
108559,98152
108562,98142
108598,98178
108600,98177
108624,98177
108647,98187
108651,98210
108649,98201
108711,98201
108728,98216
108780,98245
108758,98250
108773,98246
108796,98252
108813,98258
108839,98268
108882,98266
108875,98274
108918,98312
108943,98309
108939,98318
108988,98308
109005,98332
109044,98346
109063,98352
109089,98367
109147,98387
109135,98392
109202,98381
109221,98426
109228,98409
109284,98428
109323,98443
109352,98474
109399,98481
109391,98483
109454,98518
109450,98511
109478,98527
109501,98518
109522,98543
109519,98539
109540,98513
109476,98498
109418,98484
109347,98456
109214,98376
109025,98295
108836,98233
108634,98130
108454,98049
108282,97992
108056,97915
107914,97845
107735,97775
107538,97699
107351,97611
107221,97559
107046,97496
106887,97458
106734,97379
106635,97316
106486,97310
106403,97275
106304,97216
106221,97209
106120,97166
106096,97158
106003,97148
105971,97138
105914,97102
105883,97106
105877,97100
105867,97099
105831,97096
105854,97099
105843,97105
105811,97095
105838,97118
105843,97097
105837,97112
105830,97107
105862,97132
105849,97124
105869,97105
105853,97128
105858,97129
105878,97128
105876,97107
105895,97102
105871,97110
105861,97125
105893,97168
105827,97142
105882,97135
105909,97133
105899,97133
105908,97161
105939,97158
105961,97148
106011,97177
106011,97203
106026,97206
106108,97234
106111,97235
106189,97249
106198,97294
106267,97299
106281,97325
106329,97321
106341,97362
106400,97367
106407,97369
106444,97377
106440,97382
106483,97363
106489,97381
106475,97373
106509,97380
106483,97391
106536,97419
106513,97396
106515,97396
106484,97387
106511,97387
106487,97407
106496,97398
106503,97385
106505,97412
106501,97400
106506,97385
106485,97387
106510,97382
106509,97397
106522,97419
106539,97433
106577,97390
106593,97424
106581,97417
106595,97437
106634,97417
106636,97459
106663,97441
106703,97464
106694,97483
106745,97515
106778,97492
106795,97512
106813,97505
106860,97538
106894,97530
106913,97549
106918,97552
106970,97581
106983,97581
107031,97600
107079,97613
107105,97614
107127,97646
107174,97667
107181,97679
107251,97692
107270,97697
107322,97710
107341,97736
107354,97722
107402,97752
107461,97746
107464,97789
107489,97790
107518,97800
107560,97790
107604,97829
107624,97814
107643,97836
107669,97846
107713,97863
107720,97881
107764,97865
107780,97892
107794,97903
107835,97896
107883,97912
107875,97925
107924,97936
107911,97971
107941,97938
107981,97953
107997,97981
107995,97982
108032,97990
108057,97988
108074,97978
108116,98015
108104,98011
108156,98000
108142,98032
108198,98033
108206,98050
108229,98042
108233,98053
108260,98072
108260,98077
108298,98080
108326,98086
108349,98097
108370,98121
108387,98138
108418,98146
108469,98115
108465,98144
108464,98151
108539,98166
108561,98155
108594,98211
108645,98252
108642,98203
108681,98201
108683,98252
108717,98261
108733,98257
108763,98271
108784,98257
108801,98277
108815,98292
108806,98257
108729,98243
108720,98211
108614,98204
108477,98127
108376,98081
108225,98015
108084,97942
107915,97890
107760,97815
107598,97770
107441,97706
107258,97622
107095,97551
106937,97499
106792,97448
106678,97364
106511,97353
106382,97297
106278,97255
106187,97219
106089,97181
106007,97136
105923,97137
105865,97103
105814,97103
105762,97053
105722,97070
105691,97037
105700,97026
105648,97054
105644,97035
105625,97056
105656,97047
105656,97071
105646,97064
105668,97052
105691,97071
105663,97047
105705,97054
105704,97076
105700,97072
105699,97111
105700,97070
105753,97107
105734,97082
105743,97107
105740,97104
105764,97107
105779,97131
105792,97122
105801,97131
105786,97109
105839,97140
105846,97147
105864,97134
105883,97171
105934,97177
105948,97214
105994,97185
106033,97256
106105,97259
106141,97277
106206,97298
106251,97327
106289,97346
106317,97344
106369,97366
106438,97375
106436,97414
106433,97405
106494,97427
106509,97430
106528,97432
106561,97426
106580,97447
106553,97461
106586,97420
106597,97453
106614,97441
106609,97454
106598,97462
106602,97427
106625,97457
106588,97474
106615,97445
106615,97469
106634,97424
106631,97457
106612,97468
106614,97457
106609,97467
106634,97474
106632,97470
106679,97477
106635,97491
106683,97479
106731,97504
106718,97482
106736,97510
106728,97503
106768,97504
106784,97535
106836,97562
106827,97539
106873,97553
106908,97588
106924,97568
106947,97618
106977,97619
106985,97610
107038,97633
107079,97637
107109,97661
107121,97658
107160,97676
107195,97684
107228,97709
107264,97718
107259,97709
107337,97757
107364,97751
107400,97766
107425,97763
107453,97800
107488,97819
107532,97813
107566,97829
107577,97857
107614,97839
107640,97853
107679,97870
107717,97897
107715,97913
107787,97918
107795,97923
107786,97938
107871,97952
107855,97981
107900,97953
107933,97979
107939,97979
107978,97995
107995,98002
108062,98025
108043,98031
108088,98024
108096,98056
108129,98032
108147,98076
108176,98059
108195,98068
108208,98091
108216,98082
108235,98081
108251,98093
108281,98102
108303,98118
108288,98128
108339,98118
108356,98146
108335,98138
108372,98137
108387,98155
108394,98157
108425,98155
108414,98163
108452,98149
108457,98167
108497,98185
108459,98200
108513,98203
108532,98206
108562,98207
108559,98226
108599,98230
108602,98242
108660,98239
108676,98284
108696,98281
108719,98286
108739,98288
108811,98311
108810,98312
108837,98330
108872,98347
108919,98336
108908,98377
108954,98359
108983,98395
109006,98419
109031,98404
109055,98421
109080,98416
109067,98423
109093,98411
109061,98412
109029,98405
109015,98366
108870,98340
108788,98283
108642,98225
108460,98154
108297,98063
108126,98004
107962,97938
107786,97858
107658,97810
107464,97741
107314,97677
107161,97609
107008,97568
106883,97511
106737,97450
106588,97421
106497,97376
106372,97359
106310,97294
106196,97287
106083,97254
106016,97228
106013,97205
105997,97184
105936,97212
105908,97189
105894,97168
105834,97173
105858,97184
105850,97159
105883,97176
105893,97169
105878,97168
105911,97202
105921,97204
105923,97217
105956,97220
105942,97237
105963,97225
106016,97233
106009,97246
106064,97261
106051,97257
106092,97297
106127,97298
106132,97340
106187,97298
106185,97316
106226,97329
106254,97339
106302,97354
106353,97395
106389,97413
106448,97430
106490,97448
106575,97478
106600,97498
106671,97528
106718,97543
106761,97547
106813,97588
106836,97581
106848,97623
106910,97614
106919,97622
106924,97638
106941,97631
106960,97651
106968,97633
106958,97634
106941,97641
106928,97636
106945,97652
106936,97603
106958,97628
106899,97618
106920,97637
106910,97615
106926,97626
106910,97616
106924,97628
106902,97619
106904,97629
106887,97592
106909,97629
106878,97618
106918,97582
106896,97607
106927,97630
106919,97627
106969,97618
106978,97646
107024,97619
107010,97664
107023,97670
107074,97685
107065,97651
107129,97719
107133,97717
107195,97729
107221,97745
107259,97765
107260,97763
107317,97774
107363,97785
107383,97801
107441,97823
107459,97840
107516,97847
107546,97882
107592,97913
107624,97922
107670,97919
107716,97938
107743,97954
107783,97987
107814,97980
107884,97979
107923,98028
107964,98030
108019,98027
108025,98063
108061,98077
108091,98080
108173,98113
108215,98144
108223,98133
108271,98134
108290,98168
108335,98176
108363,98186
108425,98215
108429,98212
108502,98248
108526,98245
108536,98276
108587,98264
108623,98299
108667,98288
108699,98313
108700,98336
108754,98351
108822,98385
108823,98351
108833,98399
108885,98401
108873,98403
108906,98418
108932,98421
108979,98422
109005,98448
109031,98461
109049,98440
109056,98466
109081,98465
109140,98468
109112,98492
109153,98500
109178,98516
109204,98512
109260,98525
109251,98541
109264,98538
109289,98541
109314,98545
109371,98589
109375,98558
109421,98601
109423,98590
109451,98618
109462,98631
109507,98628
109530,98649
109568,98659
109615,98682
109634,98688
109644,98687
109686,98693
109702,98709
109710,98726
109750,98711
109769,98758
109761,98728
109816,98740
109805,98761
109798,98733
109830,98758
109791,98727
109755,98706
109678,98669
109562,98623
109404,98563
109242,98515
109025,98396
108825,98298
108612,98214
108400,98146
108207,98094
108047,97985
107862,97930
107690,97866
107531,97792
107368,97742
107193,97672
107050,97610
106905,97570
106776,97517
106654,97469
106552,97416
106460,97407
106397,97376
106316,97340
106240,97323
106214,97300
106158,97303
106127,97281
106067,97279
106056,97279
106028,97275
106044,97240
106043,97288
106020,97283
106039,97283
106030,97282
106035,97300
106041,97297
106053,97307
106088,97310
106083,97323
106079,97316
106101,97319
106118,97340
106128,97347
106133,97324
106165,97348
106129,97314
106149,97331
106137,97351
106171,97351
106175,97361
106167,97367
106218,97362
106223,97364
106246,97369
106304,97420
106302,97408
106327,97424
106396,97448
106445,97462
106471,97488
106529,97498
106567,97548
106595,97545
106689,97555
106702,97585
106738,97599
106754,97608
106779,97617
106792,97595
106806,97629
106811,97641
106845,97597
106792,97615
106840,97612
106834,97594
106809,97609
106803,97627
106802,97631
106789,97635
106779,97618
106774,97600
106784,97628
106744,97579
106759,97595
106764,97619
106734,97601
106756,97578
106757,97579
106707,97588
106745,97593
106749,97604
106753,97584
106778,97618
106769,97607
106776,97620
106797,97639
106826,97612
106861,97645
106843,97648
106855,97659
106897,97673
106922,97657
106940,97710
106958,97699
106986,97701
107037,97727
107021,97732
107040,97733
107067,97747
107106,97765
107130,97762
107144,97776
107197,97801
107208,97792
107231,97800
107284,97843
107312,97825
107324,97851
107351,97858
107412,97881
107422,97893
107444,97888
107478,97929
107506,97911
107550,97938
107560,97932
107599,97959
107643,97959
107641,97953
107681,98021
107706,97987
107739,97998
107801,98025
107812,98033
107821,98041
107863,98055
107890,98055
107880,98073
107938,98072
107940,98079
107969,98096
108005,98081
108010,98104
108008,98127
108050,98119
108078,98134
108096,98131
108107,98164
108131,98145
108153,98158
108170,98160
108189,98165
108205,98180
108204,98179
108292,98203
108266,98205
108292,98210
108303,98218
108338,98236
108373,98253
108378,98243
108409,98238
108441,98269
108458,98261
108480,98318
108517,98274
108525,98316
108560,98302
108586,98312
108612,98313
108641,98347
108654,98358
108710,98394
108704,98378
108723,98385
108763,98381
108789,98397
108837,98394
108818,98426
108838,98460
108842,98423
108835,98427
108808,98403
108749,98383
108667,98354
108594,98307
108438,98273
108305,98180
108141,98108
107980,98038
107810,97976
107641,97921
107493,97842
107296,97787
107196,97717
107029,97668
106838,97595
106708,97544
106590,97497
106468,97441
106348,97413
106220,97347
106144,97313
106014,97299
105970,97275
105897,97247
105866,97223
105828,97236
105777,97196
105749,97202
105761,97180
105725,97195
105705,97184
105709,97195
105702,97198
105686,97175
105723,97202
105716,97198
105739,97202
105750,97218
105775,97207
105805,97243
105771,97257
105790,97223
105854,97246
105857,97262
105867,97272
105881,97276
105897,97287
105920,97271
105960,97267
105938,97282
105940,97302
105965,97307
105990,97322
105993,97314
106036,97338
106083,97340
106077,97337
106160,97392
106167,97401
106239,97417
106268,97451
106338,97455
106376,97477
106404,97494
106482,97543
106504,97510
106557,97546
106560,97574
106569,97579
106603,97589
106656,97598
106645,97611
106665,97578
106675,97592
106676,97603
106697,97619
106681,97602
106703,97621
106686,97610
106709,97618
106685,97603
106671,97596
106687,97602
106675,97599
106677,97580
106683,97587
106696,97610
106686,97586
106669,97610
106671,97597
106700,97603
106691,97622
106704,97618
106709,97620
106742,97629
106759,97643
106746,97638
106818,97652
106792,97664
106822,97652
106866,97682
106885,97663
106937,97705
106926,97724
106972,97712
107021,97752
107057,97765
107076,97764
107123,97758
107115,97802
107169,97825
107224,97805
107248,97843
107272,97843
107319,97854
107362,97882
107386,97880
107437,97886
107471,97915
107486,97946
107527,97951
107575,97984
107597,97965
107641,98012
107685,98007
107716,98007
107760,98027
107770,98055
107843,98035
107871,98073
107883,98084
107926,98085
107965,98100
107977,98089
108022,98119
108050,98149
108068,98158
108100,98146
108156,98178
108160,98186
108215,98214
108217,98227
108245,98229
108272,98248
108293,98218
108287,98261
108343,98255
108367,98259
108375,98252
108391,98296
108423,98303
108406,98306
108478,98302
108481,98298
108529,98340
108515,98321
108557,98338
108569,98364
108597,98359
108612,98372
108610,98344
108663,98373
108643,98381
108697,98384
108692,98386
108716,98409
108735,98410
108753,98397
108758,98421
108818,98423
108788,98427
108849,98448
108825,98448
108876,98482
108887,98483
108937,98486
108942,98507
108958,98496
108997,98508
109026,98518
109054,98541
109070,98558
109120,98560
109128,98582
109144,98576
109216,98574
109233,98618
109253,98616
109304,98649
109362,98647
109369,98632
109410,98660
109446,98678
109490,98714
109518,98705
109541,98722
109565,98740
109582,98733
109628,98737
109680,98766
109681,98780
109644,98790
109664,98737
109593,98733
109526,98687
109438,98669
109291,98592
109136,98524
108902,98430
108714,98337
108472,98261
108299,98187
108068,98111
107919,98039
107743,97956
107575,97907
107382,97808
107227,97774
107065,97700
106900,97657
106797,97581
106621,97536
106505,97481
106402,97445
106320,97418
106233,97388
106133,97379
106106,97332
106048,97331
105982,97306
105957,97302
105948,97293
105900,97303
105878,97295
105881,97311
105891,97304
105846,97295
105863,97321
105918,97284
105904,97297
105907,97294
105932,97321
105953,97326
105916,97349
105963,97351
105998,97363
106010,97357
106032,97350
106019,97370
106058,97384
106042,97373
106091,97399
106098,97404
106099,97400
106102,97407
106110,97415
106136,97428
106162,97426
106160,97413
106220,97442
106240,97488
106289,97448
106329,97518
106366,97535
106409,97532
106455,97568
106490,97578
106541,97586
106597,97633
106598,97613
106658,97620
106713,97631
106713,97677
106752,97653
106777,97666
106747,97663
106792,97679
106775,97687
106819,97686
106822,97714
106834,97693
106852,97682
106819,97696
106844,97701
106854,97704
106841,97671
106842,97722
106840,97703
106893,97687
106813,97715
106852,97726
106856,97721
106870,97700
106861,97707
106883,97701
106903,97712
106901,97720
106881,97711
106935,97739
106902,97736
106945,97749
106968,97749
106947,97769
107003,97763
107059,97796
107027,97797
107111,97793
107141,97824
107140,97836
107215,97849
107227,97864
107243,97886
107297,97870
107320,97896
107352,97890
107371,97930
107422,97934
107449,97942
107488,97963
107535,97976
107524,97994
107602,97989
107608,98036
107640,98040
107672,98071
107713,98057
107754,98063
107796,98079
107821,98091
107862,98077
107895,98127
107893,98132
107961,98146
107978,98168
108014,98168
108048,98184
108068,98204
108134,98205
108151,98235
108196,98242
108220,98251
108217,98273
108290,98272
108301,98302
108348,98302
108386,98326
108372,98324
108455,98346
108490,98345
108485,98356
108530,98361
108543,98386
108569,98383
108598,98407
108618,98398
108679,98412
108694,98436
108716,98458
108719,98458
108781,98449
108776,98451
108813,98454
108857,98489
108838,98476
108909,98507
108917,98516
108948,98514
108945,98526
108992,98521
108988,98538
109043,98579
109013,98562
109106,98584
109114,98588
109121,98600
109169,98626
109183,98623
109214,98638
109237,98650
109271,98650
109292,98672
109313,98682
109327,98671
109356,98674
109400,98699
109427,98704
109437,98726
109459,98709
109488,98735
109503,98750
109554,98757
109594,98759
109595,98774
109628,98788
109661,98805
109705,98819
109658,98840
109718,98823
109789,98836
109800,98881
109829,98886
109868,98877
109919,98890
109939,98910
109973,98907
110009,98951
110032,98927
110089,98980
110107,98984
110179,99005
110197,99010
110240,99036
110270,99033
110311,99042
110343,99044
110374,99083
110387,99071
110397,99088
110418,99091
110406,99092
110356,99050
110342,99041
110220,98992
110114,98954
109911,98877
109735,98781
109511,98693
109262,98588
109050,98493
108798,98404
108578,98325
108399,98221
108212,98181
108017,98101
107877,98038
107685,97984
107531,97918
107401,97860
107257,97811
107103,97746
107010,97708
106909,97694
106810,97661
106710,97620
106657,97585
106588,97586
106517,97551
106518,97539
106445,97547
106445,97526
106416,97546
106387,97554
106402,97544
106422,97543
106397,97539
106430,97538
106414,97567
106451,97565
106441,97573
106468,97573
106488,97605
106498,97589
106517,97609
106542,97630
106578,97628
106585,97617
106601,97644
106631,97641
106641,97668
106638,97654
106674,97692
106673,97676
106698,97668
106713,97695
106743,97698
106763,97683
106811,97726
106832,97741
106881,97758
106892,97770
106958,97780
107000,97805
107067,97827
107085,97845
107137,97861
107187,97866
107230,97911
107241,97902
107296,97916
107289,97917
107328,97940
107341,97928
107371,97943
107363,97945
107372,97966
107390,97938
107410,97982
107380,97959
107405,97950
107384,97952
107398,97973
107390,97919
107383,97957
107350,97945
107372,97924
107363,97956
107377,97940
107349,97942
107382,97930
107349,97945
107353,97952
107364,97950
107349,97930
107379,97967
107379,97926
107407,97952
107400,97946
107415,97972
107439,97978
107446,97983
107500,98002
107468,97999
107540,98027
107540,98006
107586,98041
107594,98048
107626,98073
107664,98061
107691,98091
107725,98111
107756,98102
107797,98120
107836,98150
107845,98166
107909,98176
107950,98202
107975,98204
108018,98213
108061,98203
108091,98256
108127,98254
108155,98276
108207,98291
108230,98308
108265,98307
108303,98331
108313,98341
108372,98358
108396,98372
108437,98375
108443,98393
108486,98406
108538,98409
108560,98431
108595,98430
108629,98469
108652,98459
108696,98480
108692,98493
108746,98510
108771,98522
108819,98538
108840,98542
108883,98545
108870,98559
108947,98556
108927,98577
109001,98591
109000,98605
109044,98601
109103,98653
109093,98630
109123,98647
109168,98658
109210,98655
109197,98665
109241,98663
109241,98706
109293,98704
109329,98720
109313,98743
109362,98726
109391,98752
109409,98747
109429,98761
109450,98756
109465,98772
109499,98802
109512,98803
109529,98823
109590,98792
109574,98818
109603,98825
109623,98839
109657,98844
109671,98845
109706,98858
109708,98871
109732,98866
109783,98897
109790,98890
109806,98918
109852,98911
109882,98924
109902,98931
109941,98932
109941,98941
109968,98959
110012,98968
110014,98980
110074,99002
110103,99038
110111,99022
110182,99039
110215,99041
110209,99054
110273,99065
110301,99099
110314,99104
110362,99120
110417,99111
110417,99143
110479,99147
110509,99164
110529,99157
110573,99177
110611,99206
110616,99215
110664,99206
110674,99229
110653,99240
110645,99219
110619,99202
110545,99171
110424,99132
110332,99087
110171,98999
109922,98899
109747,98799
109484,98738
109241,98596
109022,98535
108789,98451
108582,98374
108410,98316
108252,98262
108093,98163
107959,98100
107811,98058
107655,97966
107525,97949
107375,97904
107284,97849
107197,97810
107098,97781
107015,97758
106935,97748
106880,97725
106853,97701
106787,97673
106761,97681
106747,97695
106744,97688
106686,97659
106733,97685
106693,97676
106723,97687
106702,97678
106726,97691
106750,97705
106740,97725
106751,97719
106809,97747
106839,97738
106862,97770
106889,97756
106916,97788
106901,97778
106959,97812
106972,97792
107014,97813
107023,97833
107034,97824
107082,97842
107117,97852
107139,97859
107158,97866
107191,97891
107239,97899
107268,97935
107349,97972
107368,97964
107447,98007
107487,98010
107576,98037
107569,98049
107668,98081
107691,98083
107712,98124
107743,98118
107803,98132
107815,98140
107836,98144
107854,98153
107859,98153
107871,98155
107853,98147
107854,98150
107823,98134
107838,98150
107828,98162
107842,98138
107856,98129
107839,98105
107847,98130
107806,98122
107820,98116
107771,98120
107785,98140
107801,98127
107766,98113
107813,98130
107776,98112
107766,98132
107797,98127
107798,98122
107812,98139
107821,98144
107847,98157
107858,98152
107908,98169
107869,98159
107926,98187
107934,98181
107995,98210
108018,98197
108051,98249
108060,98231
108086,98238
108155,98282
108193,98279
108199,98283
108246,98313
108254,98325
108318,98325
108333,98322
108406,98385
108412,98371
108418,98403
108486,98415
108534,98426
108550,98416
108595,98445
108630,98438
108644,98469
108726,98505
108731,98499
108797,98535
108812,98534
108855,98556
108891,98569
108894,98566
108948,98588
108997,98602
109009,98618
109054,98631
109084,98639
109085,98657
109152,98653
109147,98680
109182,98696
109228,98716
109249,98726
109315,98737
109303,98718
109369,98742
109389,98756
109433,98799
109458,98794
109496,98788
109496,98788
109524,98817
109525,98814
109576,98836
109604,98845
109634,98839
109659,98837
109687,98883
109743,98883
109706,98904
109753,98912
109779,98916
109815,98915
109833,98925
109886,98940
109873,98933
109907,98946
109920,98968
109964,98941
109963,98974
110008,99001
110033,98985
110081,99012
110086,99009
110095,99027
110127,99016
110136,99019
110137,99050
110190,99060
110191,99070
110234,99052
110232,99080
110260,99092
110295,99099
110335,99108
110339,99105
110398,99101
110397,99134
110425,99149
110464,99133
110493,99160
110537,99186
110551,99214
110620,99200
110609,99221
110660,99218
110682,99258
110750,99264
110775,99253
110790,99292
110830,99278
110866,99317
110890,99299
110933,99344
110955,99363
110973,99349
111005,99391
111030,99368
111049,99370
111010,99360
110961,99349
110902,99299
110767,99250
110645,99178
110452,99099
110268,99049
110012,98922
109741,98848
109540,98763
109295,98622
109045,98539
108875,98474
108680,98393
108563,98351
108410,98297
108260,98229
108123,98185
107949,98105
107832,98063
107688,98018
107608,97985
107517,97934
107432,97918
107343,97871
107269,97850
107251,97851
107154,97846
107142,97844
107115,97820
107087,97816
107097,97823
107074,97822
107110,97786
107045,97802
107108,97836
107103,97827
107122,97860
107125,97838
107154,97865
107160,97876
107210,97858
107232,97904
107242,97913
107286,97927
107291,97945
107350,97932
107359,97961
107380,97973
107404,97965
107469,97971
107484,97992
107490,98015
107551,98012
107575,98044
107606,98060
107667,98085
107737,98110
107784,98101
107821,98131
107858,98166
107906,98185
107974,98216
108035,98238
108105,98257
108157,98265
108191,98296
108205,98309
108260,98297
108281,98332
108276,98324
108337,98324
108336,98322
108331,98346
108305,98336
108323,98337
108318,98334
108296,98320
108301,98311
108278,98339
108277,98305
108281,98294
108268,98308
108263,98306
108231,98272
108244,98279
108257,98299
108232,98294
108199,98275
108222,98293
108234,98286
108197,98285
108224,98271
108235,98295
108229,98309
108272,98295
108233,98301
108284,98323
108307,98317
108329,98319
108350,98338
108379,98326
108357,98357
108439,98369
108449,98376
108477,98401
108500,98399
108544,98420
108536,98426
108586,98467
108651,98448
108679,98508
108707,98494
108735,98519
108786,98511
108830,98554
108871,98547
108912,98565
108955,98595
108992,98602
109032,98634
109019,98641
109115,98638
109134,98646
109172,98686
109233,98698
109275,98726
109321,98743
109327,98742
109373,98746
109409,98772
109440,98782
109482,98799
109517,98798
109588,98814
109581,98837
109642,98839
109650,98841
109716,98878
109716,98878
109758,98907
109801,98899
109833,98921
109877,98944
109850,98940
109907,98945
109948,98970
109992,98979
110000,98998
110040,98987
110063,99035
110063,99004
110104,99022
110151,99047
110165,99030
110183,99072
110204,99062
110242,99084
110238,99084
110297,99120
110316,99096
110345,99104
110344,99126
110353,99119
110412,99128
110422,99157
110451,99156
110460,99158
110483,99158
110506,99165
110543,99173
110544,99198
110582,99194
110609,99200
110620,99227
110638,99243
110666,99239
110698,99236
110734,99268
110761,99279
110755,99280
110806,99287
110844,99290
110897,99295
110885,99321
110954,99351
110967,99326
110989,99334
111034,99397
111086,99377
111081,99401
111152,99404
111173,99437
111214,99429
111248,99475
111287,99468
111272,99478
111356,99481
111380,99498
111413,99551
111449,99499
111479,99535
111486,99550
111537,99568
111552,99570
111520,99571
111507,99550
111469,99505
111411,99465
111314,99442
111118,99374
110981,99312
110733,99211
110521,99091
110272,99005
110004,98907
109763,98800
109495,98716
109315,98622
109130,98533
108910,98491
108780,98415
108611,98368
108506,98302
108377,98293
108275,98212
108078,98166
108009,98136
107913,98115
107818,98066
107760,98047
107695,98012
107605,98009
107596,97964
107562,97970
107557,97947
107526,97973
107512,97952
107510,97978
107503,97985
107521,97954
107512,97976
107552,97996
107542,97978
107595,98029
107633,98020
107677,98056
107677,98056
107665,98055
107713,98085
107794,98072
107816,98103
107821,98118
107910,98160
107909,98141
107931,98166
107978,98193
107975,98173
108065,98207
108077,98244
108129,98273
108141,98294
108204,98273
108288,98285
108346,98337
108411,98350
108478,98409
108532,98411
108579,98440
108632,98449
108695,98469
108728,98497
108794,98517
108794,98528
108811,98526
108880,98548
108879,98524
108904,98546
108884,98546
108888,98518
108890,98514
108910,98504
108886,98518
108873,98512
108850,98511
108847,98521
108835,98500
108833,98497
108776,98473
108785,98458
108775,98481
108750,98457
108728,98458
108763,98442
108724,98459
108753,98445
108719,98426
108724,98461
108745,98458
108764,98446
108751,98476
108756,98464
108812,98463
108772,98481
108807,98507
108842,98486
108868,98481
108874,98506
108903,98546
108934,98538
108927,98533
109004,98572
109002,98589
109049,98579
109058,98604
109111,98615
109133,98615
109189,98635
109196,98657
109258,98666
109268,98687
109329,98706
109346,98712
109379,98712
109388,98714
109434,98742
109447,98763
109462,98770
109488,98779
109553,98787
109586,98805
109605,98800
109630,98824
109658,98798
109679,98844
109706,98829
109761,98812
109766,98868
109761,98886
109794,98865
109816,98888
109857,98902
109852,98876
109862,98910
109862,98921
109908,98921
109911,98924
109905,98944
109943,98915
109936,98927
109962,98944
109947,98940
109980,98953
109980,98921
109989,98931
109999,98978
110006,98974
110033,98951
110060,98986
110068,98996
110085,98964
110078,98975
110090,98977
110138,98988
110171,99041
110162,99005
110176,99010
110187,99014
110187,99018
110212,99026
110231,99052
110241,99037
110262,99061
110280,99021
110301,99072
110322,99084
110322,99055
110353,99086
110356,99084
110394,99112
110427,99111
110470,99105
110482,99130
110516,99152
110559,99160
110555,99174
110600,99164
110588,99188
110646,99196
110681,99208
110680,99217
110733,99203
110766,99237
110788,99241
110808,99276
110838,99268
110884,99281
110912,99307
110969,99289
111001,99303
111005,99334
111064,99371
111093,99358
111155,99359
111147,99380
111169,99403
111218,99371
111221,99401
111226,99425
111234,99435
111217,99403
111170,99379
111100,99350
111005,99297
110855,99250
110653,99152
110468,99070
110248,98987
109989,98869
109765,98783
109528,98684
109320,98625
109126,98528
108954,98476
108821,98394
108669,98362
108530,98288
108406,98270
108283,98186
108175,98171
108051,98130
107950,98095
107885,98059
107814,98034
107753,97995
107684,97990
107670,97997
107644,97970
107615,97959
107602,97980
107589,97964
107607,97969
107599,97976
107628,97979
107687,98005
107725,98026
107775,98065
107797,98091
107895,98076
107930,98118
107976,98142
108047,98169
108108,98179
108187,98207
108248,98231
108307,98241
108331,98303
108400,98283
108501,98316
108547,98354
108621,98382
108675,98396
108748,98447
108808,98456
108884,98501
108963,98523
109031,98554
109096,98606
109197,98605
109254,98659
109368,98686
109452,98738
109499,98730
109604,98786
109658,98792
109760,98808
109762,98877
109825,98863
109889,98909
109920,98895
109941,98910
109979,98913
109986,98907
110028,98911
110023,98947
110040,98931
110038,98941
110058,98945
110088,98930
110077,98933
110090,98923
110093,98943
110112,98935
110106,98936
110100,98920
110114,98923
110107,98933
110125,98927
110109,98935
110149,98948
110164,98947
110192,98959
110169,98971
110221,98959
110266,98983
110298,98974
110314,99005
110351,99029
110376,99050
110432,99064
110501,99071
110489,99082
110565,99115
110588,99104
110645,99131
110683,99138
110705,99143
110755,99200
110790,99193
110832,99211
110859,99218
110897,99239
110959,99255
110953,99260
111023,99268
111049,99310
111071,99315
111100,99343
111086,99346
111147,99343
111181,99359
111235,99357
111243,99389
111278,99401
111323,99427
111331,99444
111372,99437
111406,99465
111453,99482
111479,99464
111474,99492
111509,99503
111518,99520
111560,99519
111598,99530
111609,99547
111620,99541
111639,99537
111664,99561
111674,99558
111683,99568
111712,99564
111721,99578
111725,99593
111711,99603
111755,99576
111764,99604
111773,99591
111783,99601
111822,99595
111825,99622
111829,99629
111831,99618
111841,99625
111857,99629
111887,99640
111900,99641
111924,99644
111955,99661
111940,99640
111943,99658
111966,99673
111981,99655
112046,99696
112032,99688
112046,99699
112046,99677
112085,99700
112063,99711
112103,99710
112099,99713
112152,99712
112145,99722
112155,99744
112173,99715
112207,99750
112229,99764
112264,99776
112286,99789
112318,99794
112321,99816
112345,99811
112375,99805
112403,99824
112409,99832
112446,99854
112472,99849
112497,99869
112510,99869
112496,99888
112473,99871
112520,99871
112512,99837
112427,99818
112354,99812
112236,99749
112080,99695
111844,99633
111647,99494
111465,99412
111182,99313
110964,99229
110729,99134
110513,99052
110294,98976
110108,98878
109911,98800
109765,98739
109592,98707
109487,98633
109347,98590
109231,98536
109133,98504
109050,98466
108972,98436
108896,98427
108803,98403
108770,98406
108740,98359
108664,98344
108657,98338
108617,98338
108578,98343
108563,98335
108585,98310
108580,98311
108617,98329
108623,98362
108627,98370
108658,98354
108658,98379
108693,98364
108736,98399
108735,98423
108803,98419
108813,98441
108873,98480
108909,98478
108948,98495
108992,98498
109042,98519
109071,98555
109124,98530
109147,98588
109207,98609
109258,98624
109313,98659
109372,98663
109437,98665
109521,98719
109538,98735
109609,98763
109685,98783
109729,98801
109776,98831
109804,98836
109861,98849
109880,98870
109913,98878
109938,98880
109924,98864
109934,98871
109906,98835
109905,98859
109894,98843
109881,98852
109865,98842
109816,98812
109817,98815
109794,98806
109724,98819
109713,98773
109667,98762
109646,98757
109601,98739
109588,98709
109580,98690
109516,98695
109536,98692
109505,98702
109501,98680
109475,98704
109494,98705
109489,98686
109498,98697
109471,98680
109515,98696
109503,98688
109520,98694
109509,98702
109582,98707
109571,98721
109586,98735
109611,98760
109581,98733
109690,98773
109681,98772
109725,98813
109751,98788
109773,98825
109791,98807
109792,98852
109861,98811
109898,98855
109902,98865
109948,98867
109971,98877
110013,98899
110056,98912
110049,98918
110106,98920
110146,98955
110197,98962
110222,99001
110257,99001
110318,99029
110329,99046
110333,99026
110409,99049
110430,99073
110486,99081
110473,99111
110527,99110
110608,99140
110661,99155
110663,99157
110707,99185
110728,99188
110776,99214
110788,99228
110834,99226
110833,99253
110893,99245
110917,99287
110978,99270
110970,99278
111010,99298
111055,99329
111062,99304
111095,99326
111135,99341
111133,99375
111157,99340
111227,99372
111250,99378
111267,99380
111286,99409
111318,99418
111348,99413
111350,99426
111438,99464
111456,99476
111487,99477
111528,99478
111555,99498
111587,99496
111630,99530
111646,99519
111684,99561
111755,99562
111743,99593
111801,99587
111849,99611
111864,99605
111910,99617
111900,99631
111913,99648
111950,99653
111979,99647
111975,99665
111954,99654
111922,99641
111865,99587
111784,99581
111653,99510
111460,99446
111296,99342
111064,99275
110854,99181
110615,99076
110396,98988
110156,98924
109966,98787
109791,98753
109611,98697
109450,98621
109301,98579
109190,98507
109018,98452
108923,98434
108811,98386
108708,98362
108620,98281
108542,98236
108479,98253
108350,98220
108319,98210
108284,98182
108230,98161
108219,98177
108196,98176
108138,98142
108190,98149
108170,98159
108170,98148
108174,98167
108195,98199
108210,98180
108229,98209
108211,98193
108294,98251
108284,98228
108344,98241
108372,98266
108400,98232
108474,98285
108467,98298
108505,98303
108545,98339
108580,98365
108635,98335
108676,98393
108702,98407
108752,98387
108787,98443
108825,98451
108853,98450
108927,98459
108984,98499
109026,98513
109095,98550
109160,98576
109223,98605
109286,98613
109347,98625
109418,98653
109443,98686
109494,98717
109539,98731
109560,98720
109568,98739
109598,98737
109616,98734
109619,98738
109628,98743
109620,98742
109609,98717
109585,98729
109580,98705
109566,98730
109539,98708
109502,98689
109496,98673
109487,98679
109467,98682
109451,98671
109446,98668
109414,98660
109394,98651
109375,98643
109386,98637
109382,98623
109367,98609
109370,98621
109329,98618
109374,98627
109345,98636
109378,98654
109399,98638
109396,98631
109398,98654
109365,98646
109448,98678
109469,98680
109491,98663
109487,98681
109533,98715
109541,98712
109586,98715
109584,98724
109645,98757
109643,98730
109684,98750
109734,98759
109769,98773
109807,98808
109842,98803
109906,98819
109925,98848
109969,98833
109998,98896
110004,98860
110050,98904
110089,98900
110143,98924
110121,98942
110223,98920
110190,98954
110284,98975
110277,98973
110319,99001
110351,99019
110360,99006
110386,99033
110418,99027
110460,99045
110503,99071
110498,99062
110506,99064
110563,99062
110551,99090
110584,99075
110591,99102
110600,99109
110635,99102
110643,99121
110680,99118
110675,99164
110682,99128
110724,99129
110718,99156
110733,99157
110744,99147
110771,99182
110779,99153
110788,99179
110798,99183
110795,99168
110851,99193
110861,99212
110876,99205
110892,99214
110915,99220
110955,99212
110952,99231
111005,99223
111020,99241
111000,99268
111043,99275
111035,99252
111047,99244
111043,99251
110988,99225
110933,99207
110839,99154
110711,99118
110565,99042
110377,98990
110175,98888
109965,98799
109789,98730
109575,98648
109423,98559
109242,98502
109063,98430
108915,98370
108768,98326
108614,98263
108488,98220
108339,98180
108226,98129
108118,98066
107991,98035
107877,98014
107811,97965
107705,97937
107682,97914
107585,97894
107550,97867
107497,97880
107469,97852
107478,97839
107401,97838
107435,97860
107423,97837
107436,97844
107426,97846
107478,97825
107489,97875
107463,97869
107509,97875
107514,97888
107555,97886
107569,97889
107610,97914
107651,97923
107662,97932
107709,97935
107756,97998
107739,97992
107790,97992
107806,97998
107870,98034
107867,98025
107919,98016
107965,98057
108018,98089
108024,98089
108088,98118
108123,98125
108198,98160
108252,98181
108317,98198
108352,98222
108441,98247
108479,98270
108553,98299
108609,98324
108611,98324
108660,98331
108718,98329
108738,98368
108739,98370
108762,98355
108786,98373
108778,98377
108796,98406
108800,98359
108776,98363
108768,98357
108733,98349
108745,98346
108750,98362
108745,98334
108738,98353
108734,98341
108729,98336
108709,98353
108737,98347
108722,98341
108744,98321
108719,98314
108708,98330
108745,98345
108746,98339
108738,98352
108750,98344
108790,98361
108800,98393
108811,98380
108824,98374
108859,98414
108866,98399
108872,98390
108909,98413
108951,98433
108951,98446
108993,98446
109033,98449
109039,98460
109089,98474
109065,98496
109152,98525
109169,98531
109215,98532
109248,98527
109292,98570
109309,98582
109356,98595
109379,98586
109420,98617
109438,98622
109479,98644
109506,98650
109533,98639
109571,98661
109568,98699
109598,98710
109643,98689
109660,98730
109688,98709
109673,98743
109729,98749
109767,98754
109803,98771
109801,98767
109829,98780
109869,98791
109865,98805
109879,98784
109904,98801
109930,98796
109964,98834
109974,98854
110033,98846
109996,98864
110060,98848
110062,98864
110078,98863
110102,98884
110156,98883
110130,98905
110154,98883
110199,98917
110220,98892
110225,98930
110267,98933
110272,98949
110314,98961
110345,98961
110350,98970
110365,98990
110401,98998
110422,98994
110435,98999
110479,99020
110461,99021
110504,99032
110522,99040
110550,99054
110558,99051
110593,99053
110585,99056
110562,99042
110540,99044
110488,99003
110349,98975
110238,98891
110102,98822
109913,98762
109731,98684
109554,98613
109340,98543
109185,98467
108995,98408
108840,98345
108646,98258
108494,98193
108321,98123
108202,98099
108064,98027
107931,97995
107783,97942
107683,97898
107560,97861
107491,97814
107380,97790
107302,97770
107232,97716
107194,97692
107154,97687
107104,97686
107057,97683
107056,97665
107027,97681
107046,97666
107030,97686
107035,97657
106993,97667
107032,97674
107035,97671
107044,97686
107067,97679
107093,97695
107100,97714
107112,97706
107164,97708
107191,97715
107220,97756
107209,97770
107239,97750
107293,97775
107311,97802
107316,97800
107334,97783
107369,97837
107416,97811
107406,97830
107438,97826
107503,97845
107514,97879
107586,97895
107582,97914
107647,97912
107722,97936
107746,97961
107824,97973
107866,98029
107909,98035
107965,98051
107980,98066
108028,98058
108046,98080
108046,98077
108099,98074
108064,98099
108082,98078
108063,98079
108087,98076
108080,98109
108076,98073
108045,98068
108051,98071
108045,98083
108043,98055
108053,98051
108010,98047
108026,98054
107967,98031
107985,98037
107967,98032
107975,98012
107963,98019
107952,98012
107947,98028
107946,98036
107959,98023
107982,98019
107974,98034
107971,98024
107988,98024
107990,98036
108009,98036
108029,98040
108036,98060
108037,98041
108096,98062
108109,98080
108101,98065
108161,98083
108170,98104
108219,98112
108246,98146
108275,98138
108301,98141
108339,98164
108354,98162
108393,98208
108430,98200
108494,98210
108504,98244
108534,98254
108582,98254
108602,98270
108675,98283
108676,98299
108714,98308
108762,98329
108762,98346
108821,98356
108832,98364
108890,98383
108937,98376
108954,98390
108976,98410
109002,98414
109072,98419
109089,98443
109093,98466
109121,98483
109163,98494
109193,98494
109203,98479
109254,98499
109259,98523
109292,98519
109307,98535
109347,98539
109387,98555
109385,98575
109441,98585
109445,98561
109481,98583
109519,98598
109542,98604
109578,98619
109644,98663
109642,98644
109667,98675
109698,98710
109701,98686
109751,98704
109764,98699
109857,98729
109853,98721
109866,98743
109902,98760
109941,98777
109950,98759
109956,98781
109985,98790
109984,98816
109950,98765
109935,98754
109860,98704
109731,98666
109600,98601
109455,98538
109267,98480
109110,98403
108901,98333
108768,98247
108572,98187
108421,98118
108273,98077
108106,98005
107952,97939
107805,97892
107683,97842
107540,97792
107419,97731
107304,97678
107202,97670
107111,97646
107038,97600
106961,97584
106899,97577
106862,97531
106858,97562
106759,97519
106775,97492
106759,97539
106737,97505
106765,97511
106754,97529
106772,97501
106787,97533
106766,97563
106796,97541
106797,97552
106872,97593
106867,97583
106927,97603
106954,97614
106968,97625
107016,97636
107040,97663
107087,97656
107115,97661
107130,97696
107169,97696
107161,97713
107206,97745
107241,97734
107266,97749
107317,97749
107329,97776
107391,97770
107435,97826
107444,97824
107501,97845
107568,97836
107612,97898
107679,97902
107737,97923
107781,97946
107806,97958
107871,98028
107935,98018
107972,98027
107991,98029
108013,98052
108025,98044
108049,98051
108080,98049
108090,98070
108078,98046
108089,98056
108089,98069
108060,98044
108110,98040
108088,98055
108079,98062
108052,98046
108076,98037
108067,98043
108071,98048
108071,98066
108065,98062
108030,98033
108054,98023
108057,98033
108033,98049
108050,98054
108069,98052
108045,98031
108056,98045
108092,98037
108091,98058
108105,98061
108128,98055
108135,98084
108186,98075
108183,98114
108217,98102
108198,98100
108268,98120
108270,98135
108312,98173
108343,98183
108373,98190
108405,98215
108473,98228
108502,98232
108505,98227
108573,98240
108561,98244
108613,98270
108628,98270
108688,98308
108704,98344
108761,98327
108784,98325
108795,98343
108823,98368
108881,98370
108903,98380
108932,98389
108952,98422
109014,98401
109012,98421
109075,98423
109089,98457
109149,98472
109139,98473
109204,98470
109223,98488
109230,98494
109269,98509
109288,98533
109306,98554
109353,98550
109356,98552
109373,98560
109429,98573
109421,98585
109447,98573
109481,98589
109496,98603
109501,98589
109537,98621
109577,98609
109584,98627
109607,98627
109622,98625
109656,98669
109639,98671
109685,98675
109727,98676
109743,98703
109743,98692
109781,98699
109793,98708
109829,98756
109862,98762
109855,98730
109886,98729
109898,98773
109946,98764
109995,98784
110000,98775
110020,98822
110044,98823
110073,98816
110111,98848
110116,98833
110131,98845
110113,98841
110079,98806
110027,98791
109961,98768
109838,98720
109712,98639
109549,98616
109365,98499
109180,98453
109017,98369
108798,98288
108651,98223
108477,98165
108287,98073
108137,98014
107971,97960
107798,97909
107679,97860
107536,97796
107407,97774
107258,97704
107171,97664
107071,97621
106963,97609
106904,97590
106850,97572
106789,97533
106754,97536
106712,97523
106700,97513
106650,97510
106614,97493
106658,97507
106651,97521
106657,97525
106640,97517
106657,97501
106646,97527
106703,97525
106697,97538
106716,97566
106745,97532
106760,97560
106785,97566
106795,97581
106853,97581
106856,97618
106906,97628
106918,97616
106924,97618
106970,97652
106964,97664
107011,97649
107027,97648
107071,97675
107086,97691
107127,97715
107177,97730
107211,97751
107264,97758
107342,97789
107370,97798
107433,97829
107493,97860
107527,97867
107592,97850
107600,97902
107683,97901
107675,97945
107699,97927
107716,97941
107752,97949
107752,97940
107714,97939
107761,97952
107761,97966
107753,97949
107741,97923
107761,97932
107763,97950
107740,97934
107724,97924
107697,97925
107715,97904
107700,97918
107729,97922
107723,97897
107674,97917
107689,97922
107687,97933
107668,97930
107656,97897
107687,97919
107657,97916
107717,97910
107710,97943
107723,97928
107706,97933
107733,97932
107769,97944
107786,97958
107779,97975
107847,97972
107847,97993
107876,98007
107883,98002
107943,98043
107944,98023
108010,98033
107974,98052
108045,98048
108100,98100
108106,98077
108171,98129
108207,98103
108226,98143
108243,98152
108293,98161
108277,98168
108357,98187
108376,98194
108409,98204
108443,98212
108482,98238
108535,98245
108539,98246
108578,98279
108586,98268
108630,98301
108678,98293
108686,98306
108699,98325
108758,98332
108745,98330
108805,98382
108792,98385
108832,98377
108888,98378
108881,98408
108942,98408
108947,98421
108998,98448
109013,98410
109052,98462
109043,98453
109082,98466
109108,98478
109143,98492
109159,98482
109189,98494
109205,98492
109245,98521
109236,98521
109284,98550
109288,98546
109302,98558
109339,98572
109374,98568
109389,98583
109414,98572
109460,98579
109485,98591
109510,98599
109544,98662
109547,98647
109595,98690
109623,98667
109622,98669
109657,98683
109691,98706
109733,98709
109733,98732
109736,98684
109704,98716
109682,98645
109608,98643
109515,98616
109406,98558
109274,98490
109104,98426
108896,98364
108773,98299
108574,98203
108371,98153
108213,98086
108078,98004
107860,97951
107745,97896
107568,97825
107399,97779
107249,97707
107116,97656
107023,97632
106874,97572
106780,97536
106662,97505
106616,97478
106524,97466
106492,97428
106391,97417
106384,97393
106352,97392
106309,97398
106286,97378
106276,97400
106291,97387
106270,97398
106277,97377
106287,97401
106256,97378
106279,97410
106316,97408
106309,97404
106330,97406
106347,97430
106350,97442
106402,97444
106392,97422
106430,97421
